0 8045449 6903479 7216141
1 8022521 6898837 7194776
2 8056178 6902480 7179506
3 8092524 7002073 7230806
4 8099808 7111070 7340234
5 8173050 7244963 7422804
6 8217920 7409896 7575798
7 8304603 7562138 7625232
8 8341586 7676817 7685340
9 8373766 7845529 7805521
10 8349706 7846209 7819057
11 8388053 7856192 7845701
12 8351578 7797940 7787827
13 8354533 7764530 7797068
14 8310456 7619890 7676845
15 8268476 7540713 7624032
16 8233218 7316393 7490147
17 8147094 7211846 7372032
18 8112758 7049566 7329299
19 8040899 6964143 7225248
20 8011955 6914887 7213726
21 8032509 6895879 7201882
22 8062798 6960543 7228527
23 8085494 6988650 7289855
24 8080489 7129699 7382879
25 8143221 7267783 7464862
26 8210649 7439287 7598544
27 8253682 7612744 7679826
28 8301723 7716644 7788168
29 8358340 7867117 7819584
30 8400054 7828709 7853414
31 8369984 7904501 7870508
32 8363919 7850225 7858528
33 8353161 7776459 7778990
34 8313203 7655924 7702963
35 8286049 7562711 7638021
36 8243570 7396715 7462475
37 8144087 7177045 7385860
38 8113351 7107161 7335247
39 8052306 6923099 7256789
40 8020745 6949647 7233717
41 8027104 6892319 7246379
42 8032055 6855385 7172396
43 8084284 6975962 7251893
44 8080668 7112309 7380812
45 8147108 7221939 7438585
46 8192668 7387004 7549033
47 8280735 7563171 7594717
48 8307701 7666988 7773501
49 8357382 7825638 7813842
50 8340220 7868716 7883446
51 8339682 7897716 7922626
52 8346691 7885478 7920913
53 8314360 7804391 7852016
54 8285335 7690600 7746182
55 8250402 7561274 7654433
56 8213868 7379017 7508280
57 8138855 7201616 7448771
58 8076193 7082811 7325147
59 7997812 6917312 7244628
60 8046476 6847533 7186956
61 8029112 6813743 7104447
62 8038888 6801654 7149822
63 8054366 6905162 7199935
64 8091780 6997759 7291462
65 8126615 7138028 7366044
66 8185337 7352722 7531148
67 8257114 7533701 7624409
68 8302008 7664717 7713642
69 8379077 7825803 7821847
70 8354990 7854007 7840885
71 8385286 7895160 7923681
72 8365674 7855957 7843038
73 8319949 7775370 7818793
74 8290713 7649821 7676232
75 8278931 7546927 7562591
76 8243845 7306178 7444824
77 8182970 7198707 7362277
78 8157332 7036467 7300584
79 8092049 6972585 7206013
80 8102120 6909438 7171086
81 8090745 6925299 7184052
82 8106222 6979222 7192675
83 8178142 7056314 7283577
84 8184884 7166522 7336850
85 8224818 7272710 7427161
86 8233757 7489133 7593651
87 8319639 7677214 7679558
88 8363489 7814620 7820026
89 8436145 7973326 7889059
90 8432772 7965639 7914471
91 8440256 8003959 7901597
92 8425398 7974325 7926805
93 8399972 7933623 7875206
94 8397193 7819480 7744420
95 8358921 7711010 7706926
96 8314127 7545601 7569410
97 8249192 7385959 7511679
98 8193630 7290216 7413198
99 8141037 7116157 7354885
100 8138589 7122646 7316720
101 8152773 7103276 7318204
102 8196405 7178318 7342813
103 8225332 7262920 7379999
104 8315118 7384665 7476599
105 8314202 7476447 7549844
106 8370309 7698170 7670537
107 8472624 7851940 7747410
108 8518386 7940760 7813873
109 8554191 8135061 7956867
110 8602450 8131943 7951100
111 8610191 8213439 8005578
112 8587514 8260030 8004245
113 8542584 8143784 7971868
114 8552110 8067288 7871142
115 8490231 7954787 7835576
116 8442293 7725517 7662231
117 8353241 7586399 7590188
118 8306559 7447219 7484097
119 8243436 7274190 7395623
120 8224482 7269910 7379413
121 8200552 7176362 7353901
122 8214539 7203167 7368461
123 8225770 7308807 7448837
124 8229549 7402616 7539768
125 8289623 7521726 7570925
126 8307915 7687094 7690956
127 8381317 7819630 7786626
128 8435155 7895043 7838690
129 8481392 8025947 7907748
130 8475675 8022529 7888525
131 8524543 8049928 7940576
132 8510278 8068671 7911910
133 8462455 7974446 7849961
134 8402823 7788146 7731622
135 8376675 7687498 7664999
136 8378291 7462324 7473196
137 8255584 7310285 7411967
138 8231882 7175787 7311133
139 8168963 7019031 7238442
140 8148147 7006838 7237783
141 8130757 6962726 7210274
142 8131391 6986425 7206283
143 8147288 7042613 7303354
144 8162863 7197534 7392175
145 8177392 7318915 7493914
146 8202634 7475358 7629555
147 8263699 7586411 7691583
148 8288389 7652325 7730529
149 8315347 7816188 7826291
150 8305940 7822288 7823653
151 8341473 7847518 7846325
152 8300135 7802196 7840902
153 8281953 7782518 7760006
154 8276323 7592044 7728483
155 8190960 7482256 7630736
156 8168445 7291734 7522024
157 8140105 7156566 7422199
158 8037379 7019417 7322693
159 7989742 6872454 7236186
160 7976498 6913261 7230897
161 7988020 6854150 7242007
162 7985137 6904883 7246268
163 8051803 6981033 7308851
164 8071005 7126532 7421126
165 8067478 7203784 7475638
166 8144590 7368310 7614281
167 8193653 7515715 7613250
168 8261122 7621933 7718519
169 8316507 7740412 7732799
170 8344073 7751067 7787697
171 8331983 7793931 7796989
172 8305151 7743557 7758489
173 8295455 7644189 7697883
174 8255516 7536486 7622270
175 8246032 7437776 7555094
176 8159125 7237924 7409697
177 8119607 7082240 7362600
178 8067530 7009269 7282635
179 7980718 6855683 7207139
180 8019473 6855607 7187965
181 8004042 6850954 7155536
182 8075204 6881413 7196934
183 8028343 6898884 7199206
184 8048687 7059952 7306164
185 8106036 7148877 7415358
186 8177944 7307149 7559059
187 8239754 7514777 7634768
188 8252954 7641297 7695286
189 8373649 7797387 7777118
190 8324398 7794752 7813133
191 8359012 7805043 7798643
192 8330576 7807149 7795090
193 8301383 7699365 7772425
194 8274974 7592612 7647471
195 8206796 7451568 7580288
196 8174428 7273146 7416533
197 8077160 7141831 7358416
198 8083227 6938702 7272730
199 7996412 6855423 7211349
200 8026446 6854501 7171299
201 8003445 6807393 7177583
202 8014830 6860952 7229749
203 8049396 6974162 7308559
204 8028313 7119108 7393912
205 8103749 7236854 7457682
206 8155442 7375223 7553045
207 8218793 7494603 7624946
208 8314359 7636182 7710961
209 8350938 7782852 7803484
210 8344618 7779683 7792786
211 8342476 7813646 7793659
212 8337876 7778445 7767285
213 8322677 7715527 7688064
214 8335278 7503807 7604537
215 8285130 7421086 7468225
216 8257976 7159941 7269587
217 8159020 6958725 7120114
218 8171776 6828247 6976492
219 8174375 6602922 6779182
220 8158628 6512675 6684035
221 8165955 6402011 6595319
222 8211718 6379689 6495672
223 8264862 6412448 6482398
224 8284146 6507353 6537911
225 8307199 6594150 6656408
226 8388545 6770986 6747171
227 8471068 6872883 6758455
228 8579631 6996879 6756313
229 8701748 7161188 6793676
230 8794917 7247860 6844713
231 8844935 7395029 6902573
232 8908017 7522808 6967054
233 9043262 7631808 6955272
234 9182423 7723627 6858647
235 9345302 7805096 6798881
236 9456199 7907366 6779897
237 9602001 8043023 6818694
238 9683155 8326725 6978268
239 9764153 8524855 7150519
240 9943079 8900216 7308000
241 10064976 9134539 7432227
242 10133372 9430804 7673228
243 10204012 9783536 7952194
244 10294162 10147216 8221139
245 10272747 10561443 8665235
246 10083023 11112078 9466776
247 9846144 11708484 10296222
248 9635392 12126092 10912465
249 9501839 12577850 11462501
250 9397343 12809781 11823511
251 9349026 13167947 12257229
252 9281953 13410932 12484024
253 9278053 13501912 12647249
254 9239375 13347399 12500793
255 9268389 13329819 12479036
256 9156633 13211987 12491248
257 9065361 13038568 12350416
258 9033597 12678986 12043259
259 8811589 12098440 11651384
260 8611721 11542960 11329375
261 8455415 11049408 10985035
262 8294372 10369428 10427637
263 8165172 9647913 9849620
264 7874551 9109486 9539820
265 7705096 8671937 9341550
266 7675864 8513447 9201005
267 7763345 8308098 8926768
268 7879326 8236420 8707092
269 7964999 8179589 8555344
270 8030917 8019549 8370943
271 8070386 8012248 8300914
272 8005775 7846799 8167437
273 8020333 7641283 7946585
274 7992489 7320546 7733851
275 7954019 7168978 7511937
276 7926049 6926471 7338480
277 7907683 6726982 7204879
278 7905483 6600680 7033200
279 7859843 6445797 6942115
280 7910323 6491450 6901557
281 7938988 6488576 6891889
282 8002249 6584435 6932545
283 8071085 6745621 7063781
284 8115532 6929101 7183493
285 8145550 7071425 7328453
286 8199214 7318653 7466636
287 8275228 7503873 7588093
288 8280281 7600734 7673830
289 8362123 7750391 7751628
290 8362949 7749035 7773484
291 8352623 7818257 7817660
292 8337301 7755850 7789727
293 8303441 7696759 7774966
294 8234169 7561191 7665063
295 8220602 7440994 7568404
296 8151000 7244114 7402894
297 8112551 7076696 7338274
298 8067930 6972371 7249043
299 7984719 6811529 7194915
300 8004278 6781285 7141048
301 7986067 6731703 7132123
302 7995193 6781355 7130716
303 8041302 6839586 7190186
304 8087471 6963070 7306662
305 8103962 7130541 7347876
306 8153278 7289546 7511281
307 8257968 7504672 7599608
308 8236772 7609379 7729181
309 8312575 7746370 7774993
310 8369463 7774015 7782733
311 8356717 7762749 7799107
312 8281213 7724987 7778468
313 8301301 7659886 7745873
314 8275979 7559832 7608648
315 8234047 7453078 7552065
316 8203977 7244306 7429668
317 8120890 7099182 7344630
318 8047701 6913355 7197436
319 8000134 6801988 7117459
320 8040096 6761616 7105494
321 7986136 6752863 7079095
322 8008222 6768263 7152087
323 8073441 6911088 7221105
324 8105019 7033922 7316067
325 8137251 7150452 7358972
326 8196936 7325418 7463890
327 8278699 7448565 7537072
328 8284732 7573347 7639802
329 8357301 7692346 7700687
330 8374959 7723533 7683600
331 8359108 7723712 7718301
332 8374229 7708663 7694694
333 8343677 7626568 7629687
334 8306633 7495712 7573245
335 8256485 7416616 7477562
336 8228660 7172804 7341306
337 8144119 7095582 7272789
338 8095917 7015646 7230043
339 8057023 6862781 7175022
340 8056364 6862633 7144654
341 8056276 6832635 7163981
342 8059516 6898633 7182776
343 8093737 6969682 7240742
344 8125037 7064669 7296401
345 8163757 7162893 7377096
346 8212800 7340356 7500423
347 8316173 7524230 7569466
348 8315706 7684558 7691417
349 8411976 7861242 7786008
350 8394365 7851287 7820357
351 8433951 7912298 7862264
352 8406856 7869686 7835347
353 8363410 7822124 7767484
354 8362143 7708032 7744469
355 8320608 7601010 7661720
356 8295875 7447146 7521982
357 8150159 7269074 7463183
358 8163688 7191073 7368664
359 8103846 7033872 7266710
360 8116049 6986812 7243026
361 8096536 6940879 7238285
362 8088497 7021078 7247439
363 8139159 7051214 7306754
364 8175226 7197073 7344141
365 8222241 7309550 7427570
366 8267170 7486637 7567339
367 8334166 7674228 7626841
368 8391522 7769785 7730729
369 8433698 7888058 7783692
370 8460921 7920906 7810430
371 8476386 7954009 7816316
372 8486287 7884602 7748582
373 8483463 7806581 7719925
374 8407915 7722037 7645410
375 8380792 7585915 7591863
376 8332393 7419197 7413771
377 8256993 7285141 7396639
378 8208124 7177901 7346100
379 8168987 7081443 7268193
380 8171229 7048653 7244900
381 8143064 7072383 7248956
382 8182728 7096588 7270808
383 8211119 7159820 7332575
384 8229508 7257980 7448425
385 8290741 7398721 7487792
386 8329469 7629950 7640778
387 8416110 7790038 7711311
388 8463200 7917104 7842419
389 8532719 8061285 7928809
390 8513669 8099816 7915007
391 8553764 8161448 7970293
392 8520576 8153146 7967143
393 8487256 8036266 7885900
394 8465200 7950200 7852186
395 8421956 7840461 7748574
396 8382391 7652680 7654432
397 8308543 7534584 7588181
398 8294194 7412002 7464667
399 8231266 7274797 7339862
400 8222549 7257746 7379770
401 8227459 7234798 7336550
402 8251987 7275924 7374743
403 8287492 7339465 7415967
404 8295268 7487605 7524887
405 8375899 7607245 7626128
406 8442218 7828213 7740871
407 8521587 7968968 7814362
408 8553419 8099009 7878769
409 8605329 8183000 7919145
410 8641453 8211305 7897816
411 8629820 8246301 7955313
412 8622714 8218399 7943546
413 8573874 8148131 7870395
414 8552276 8003506 7807316
415 8557869 7910955 7712305
416 8528375 7757344 7587809
417 8442058 7643072 7541523
418 8409095 7520971 7489008
419 8343591 7400268 7413676
420 8355848 7476169 7391440
421 8407461 7380362 7405574
422 8386776 7460630 7409565
423 8400303 7564684 7472956
424 8470561 7719503 7580116
425 8523730 7825621 7636689
426 8575910 8005525 7777130
427 8659072 8144822 7821022
428 8697294 8255136 7886988
429 8792237 8396082 7949819
430 8759545 8401638 7952966
431 8833258 8474885 7963334
432 8814594 8418915 8011092
433 8804728 8344167 7933284
434 8764524 8239307 7840735
435 8747166 8155523 7755557
436 8736826 8014866 7598615
437 8672726 7848251 7549560
438 8639404 7771391 7473164
439 8612842 7634429 7404915
440 8621417 7627434 7385798
441 8604742 7610444 7390291
442 8650112 7686124 7400239
443 8683136 7802797 7479551
444 8737230 7935510 7563148
445 8824243 8095197 7641391
446 8877761 8280878 7803017
447 8943140 8445131 7857724
448 8980434 8588785 7964719
449 9087779 8734882 8027508
450 9064069 8772732 7995006
451 9140790 8825791 8087205
452 9122609 8839096 8069767
453 9107876 8743466 7994062
454 9095785 8665187 7934539
455 9088272 8576549 7848782
456 9019060 8374124 7702159
457 8947859 8286656 7660006
458 8929320 8156838 7601955
459 8866898 8057710 7497615
460 8901194 8034156 7476726
461 8891307 8045160 7469921
462 8942841 8078130 7507342
463 8978711 8209417 7544304
464 9033842 8301349 7618712
465 9071276 8422717 7712909
466 9141634 8657923 7870621
467 9242741 8802515 7953288
468 9246346 8958388 8007963
469 9342369 9114816 8129419
470 9330991 9150151 8139873
471 9402772 9161408 8130067
472 9348169 9115933 8146969
473 9368082 9064886 8070410
474 9327376 8945492 7996223
475 9246037 8825072 7929439
476 9232434 8668490 7823782
477 9185667 8527335 7724177
478 9132232 8449443 7709919
479 9083010 8287961 7592215
480 9048240 8298092 7534643
481 9089636 8256428 7548271
482 9085455 8309001 7579212
483 9106363 8379775 7675384
484 9124312 8534879 7735487
485 9156064 8647423 7843133
486 9181004 8852920 7986783
487 9254606 9001705 8087222
488 9310015 9124126 8148047
489 9373228 9286764 8209332
490 9340863 9304491 8297432
491 9355218 9328151 8327872
492 9347868 9280597 8305486
493 9292696 9189876 8259665
494 9251923 9035291 8163563
495 9241063 8922685 8099925
496 9118722 8726768 7909025
497 9072160 8533319 7842861
498 9023084 8426005 7763436
499 8925758 8247836 7656398
500 8938169 8231458 7652345
501 8908378 8165109 7654894
502 8895225 8150313 7602708
503 8893208 8240959 7643782
504 8928561 8359005 7819166
505 8955398 8472057 7843415
506 9000847 8592003 8000665
507 9039888 8735261 8023512
508 9059744 8845640 8133791
509 9114837 8975729 8224968
510 9082600 8966540 8234732
511 9092884 8964298 8225648
512 9026608 8929131 8236967
513 9006362 8839362 8198139
514 8943447 8703211 8087056
515 8909055 8563075 8037947
516 8847395 8369807 7896705
517 8720106 8226739 7822268
518 8704397 8110847 7780050
519 8574614 7956518 7676813
520 8596640 7937513 7715943
521 8528306 7901198 7683842
522 8559418 7924725 7743984
523 8585991 8011142 7783821
524 8611124 8136848 7920839
525 8656778 8208392 7982618
526 8650735 8421659 8144284
527 8706364 8581508 8223003
528 8732368 8701468 8261245
529 8780043 8791813 8391997
530 8752145 8793259 8389897
531 8760733 8793238 8404236
532 8757806 8779929 8422477
533 8674242 8687979 8343377
534 8644262 8559220 8279216
535 8594808 8455456 8198594
536 8558750 8169261 8015899
537 8482221 8072912 7949349
538 8418589 7922348 7902687
539 8334313 7726481 7814269
540 8305269 7726748 7768632
541 8284919 7682571 7772533
542 8304566 7692723 7728805
543 8314533 7757375 7823780
544 8354688 7889166 7893433
545 8387428 7954992 7973492
546 8413798 8138047 8092838
547 8461887 8282142 8135367
548 8471701 8369531 8233667
549 8535767 8501531 8294275
550 8511298 8466080 8315884
551 8507602 8474022 8326230
552 8515711 8446968 8289181
553 8493100 8322749 8244912
554 8418531 8199008 8150670
555 8419609 8103186 8034705
556 8367804 7933172 7890855
557 8281551 7758110 7851373
558 8195523 7612660 7772314
559 8090901 7477209 7696815
560 8135327 7476822 7656270
561 8117684 7433602 7666841
562 8160188 7437236 7642767
563 8184442 7580542 7742239
564 8190618 7676183 7846240
565 8221934 7836591 7945801
566 8291004 7977709 8065310
567 8353350 8138249 8156208
568 8370080 8266354 8261074
569 8436975 8420087 8348354
570 8426882 8417463 8354718
571 8453003 8468731 8369905
572 8392148 8412215 8338130
573 8377572 8302769 8297931
574 8342343 8200932 8204806
575 8294775 8061437 8144692
576 8250659 7824866 7915452
577 8201366 7671252 7873838
578 8137081 7535782 7821599
579 8069293 7446849 7695911
580 8071198 7403878 7713093
581 8093035 7387685 7694615
582 8097388 7411396 7717059
583 8087691 7518512 7741627
584 8134687 7606219 7892663
585 8187713 7734019 7901549
586 8194629 7979393 8104156
587 8284789 8064886 8143097
588 8350302 8185420 8241018
589 8409521 8361974 8356826
590 8384839 8384495 8351198
591 8431293 8431971 8400254
592 8384550 8411147 8389175
593 8358458 8359808 8368175
594 8307940 8228176 8303970
595 8287472 8139883 8220470
596 8232702 7975708 8108024
597 8132978 7798819 8004716
598 8085204 7660831 7952754
599 8048826 7521568 7824136
600 8041373 7509755 7764602
601 8059339 7464574 7823595
602 8050593 7506395 7817846
603 8082100 7614883 7922742
604 8172548 7775462 7958084
605 8194214 7814224 8035462
606 8221359 8043206 8174947
607 8293562 8183020 8254724
608 8335060 8309937 8341700
609 8380665 8474739 8390778
610 8411550 8463953 8463184
611 8373707 8513082 8496425
612 8368264 8507101 8481298
613 8358213 8414632 8373103
614 8351202 8294132 8348026
615 8301334 8199531 8254960
616 8227859 8028217 8135409
617 8150449 7890695 8068852
618 8133183 7758730 8023559
619 8030152 7629042 7931797
620 8052902 7598544 7882503
621 8049280 7551406 7864771
622 8085303 7549544 7849195
623 8092415 7637181 7904805
624 8149581 7754344 7999777
625 8172865 7913565 8062704
626 8243639 8040345 8228959
627 8314855 8246170 8283524
628 8306570 8357827 8421622
629 8407529 8539499 8457924
630 8382803 8508051 8470970
631 8391756 8478084 8459687
632 8412563 8513223 8417101
633 8359505 8416213 8431004
634 8359373 8298208 8329477
635 8301767 8206971 8231004
636 8247732 8030074 8157480
637 8171711 7904189 8091141
638 8134174 7798358 8018529
639 8073998 7665862 7922178
640 8057894 7599530 7904828
641 8061290 7600152 7888284
642 8111332 7615385 7900955
643 8121061 7723831 7929646
644 8190253 7811031 8007507
645 8174696 7943110 8069574
646 8211079 8094187 8205187
647 8302533 8198586 8265246
648 8326219 8330497 8334077
649 8401533 8440936 8426404
650 8384236 8503062 8466031
651 8423990 8504447 8433583
652 8390888 8510702 8409639
653 8326958 8367924 8371794
654 8323870 8250383 8312525
655 8283406 8169477 8244542
656 8260485 7950769 8096757
657 8157028 7826908 8021061
658 8099075 7731032 7953341
659 8072323 7591487 7862303
660 8064244 7579501 7839023
661 8075942 7553989 7818645
662 8065972 7576884 7832148
663 8135717 7619909 7913207
664 8127828 7781652 8015028
665 8178764 7901239 8096770
666 8212002 8090640 8193085
667 8312334 8258924 8315503
668 8370482 8369097 8353575
669 8384786 8526091 8439592
670 8390250 8549019 8511743
671 8431978 8577874 8484978
672 8395515 8504406 8460146
673 8388962 8400159 8378605
674 8329574 8269269 8300133
675 8295447 8159920 8199056
676 8235987 7967561 8077024
677 8203553 7832812 8005900
678 8115511 7689452 7915838
679 8063372 7497315 7791041
680 8064815 7515510 7789995
681 8035436 7509040 7819231
682 8041024 7524356 7776851
683 8110668 7630597 7858222
684 8150006 7689344 7957222
685 8198414 7813364 8024987
686 8232220 8075849 8197917
687 8289671 8235039 8253327
688 8336504 8356424 8385535
689 8387153 8481785 8457316
690 8377576 8498932 8487445
691 8415605 8554084 8483647
692 8381562 8543319 8473677
693 8350608 8449637 8439610
694 8304031 8343539 8373177
695 8285259 8234160 8286014
696 8236451 8042876 8137369
697 8174043 7889953 8084425
698 8167266 7757653 7989874
699 8086339 7588800 7909412
700 8080252 7626097 7900178
701 8038977 7585524 7851589
702 8107780 7596612 7882044
703 8093763 7675149 7906925
704 8138199 7813348 8049005
705 8131983 7898808 8099957
706 8217942 8094079 8273182
707 8296234 8211725 8322325
708 8321245 8336577 8394133
709 8391553 8461365 8452433
710 8396543 8510359 8459785
711 8396309 8465498 8468650
712 8379650 8429722 8382721
713 8358988 8306293 8334315
714 8285233 8170358 8259368
715 8273966 8056334 8137235
716 8208361 7841669 7985623
717 8134590 7694865 7896055
718 8102092 7576259 7835977
719 8045754 7501875 7753399
720 8075085 7465172 7741812
721 8037677 7394975 7742319
722 8065317 7459446 7727310
723 8084871 7542666 7828316
724 8118251 7718536 7966179
725 8139137 7830075 8075258
726 8213030 8052703 8193184
727 8300838 8206706 8292953
728 8307705 8332979 8332679
729 8381490 8479334 8446455
730 8354775 8498780 8473993
731 8357146 8512763 8488522
732 8380174 8455004 8480371
733 8310598 8352524 8398069
734 8321310 8249516 8335011
735 8262603 8169801 8252064
736 8178765 7928294 8083080
737 8151574 7797002 8020557
738 8080734 7669857 7931731
739 8068340 7508439 7826589
740 8018645 7478803 7835577
741 8017410 7436476 7814809
742 8037797 7463674 7792916
743 8076932 7564747 7829847
744 8122403 7655830 7936109
745 8090911 7821661 8028331
746 8234715 7972467 8128397
747 8247168 8119243 8202149
748 8321571 8255444 8337093
749 8355189 8411669 8387902
750 8367290 8412021 8414023
751 8380899 8430725 8436610
752 8364748 8432619 8440077
753 8323698 8319161 8356968
754 8287987 8244411 8265730
755 8255194 8141816 8242066
756 8177871 7910292 8065857
757 8134118 7789162 8003347
758 8092113 7679333 7936841
759 8038368 7510515 7851354
760 8074917 7512517 7804086
761 7992752 7492198 7828050
762 8027351 7478871 7850176
763 8042086 7593547 7882159
764 8127067 7730174 8002289
765 8160124 7863549 8096582
766 8182752 8057774 8226662
767 8276823 8174845 8293526
768 8289090 8302591 8353285
769 8392165 8444586 8421246
770 8374206 8458084 8453047
771 8385245 8481537 8456209
772 8383940 8464767 8446977
773 8306260 8295493 8367062
774 8289209 8210332 8281844
775 8267221 8081918 8201078
776 8197236 7877545 8031328
777 8127827 7756205 8015234
778 8064889 7619284 7906809
779 8024482 7448922 7790606
780 8031675 7480976 7792089
781 8017730 7454023 7760975
782 8026120 7444751 7802735
783 8040749 7558145 7891822
784 8087123 7707337 7965610
785 8094652 7828756 8033818
786 8179718 8031439 8190294
787 8239355 8099630 8242608
788 8296916 8252586 8305197
789 8382507 8335158 8359652
790 8321105 8390175 8361457
791 8367733 8406410 8368119
792 8377036 8332608 8364309
793 8337101 8270876 8281327
794 8290327 8138577 8224401
795 8279281 8027204 8111584
796 8211976 7793376 7962287
797 8124950 7660604 7910376
798 8118280 7564552 7822243
799 8027053 7398658 7736726
800 8058209 7406554 7731255
801 7993760 7389570 7702114
802 8032036 7409737 7743613
803 8066817 7488181 7802392
804 8090864 7629945 7891981
805 8135212 7745225 8003247
806 8232311 8008033 8156542
807 8278702 8174526 8213160
808 8307564 8284118 8309939
809 8357326 8426364 8421548
810 8367571 8461882 8454369
811 8409953 8516120 8454985
812 8370324 8485695 8537906
813 8312810 8411768 8420658
814 8316805 8292044 8365143
815 8275093 8188474 8278669
816 8206647 7985368 8121157
817 8135354 7796337 8062792
818 8090198 7697614 7941756
819 8032327 7523088 7832242
820 8036445 7509679 7823980
821 8004034 7466930 7787291
822 8030890 7460674 7782411
823 8061352 7541495 7884528
824 8087966 7623097 7899046
825 8113867 7748580 7991737
826 8198800 7960176 8148087
827 8285528 8073359 8199908
828 8306217 8228076 8293610
829 8390416 8364430 8344404
830 8388773 8366063 8329725
831 8389573 8391638 8357989
832 8374795 8366500 8332260
833 8308120 8242443 8284357
834 8267108 8135613 8226005
835 8260496 8024451 8136717
836 8208708 7793162 7971380
837 8141694 7691273 7903034
838 8128788 7597074 7843047
839 8064027 7435026 7766890
840 8031437 7457169 7805515
841 8012405 7468848 7784333
842 8068528 7484354 7795043
843 8093375 7579515 7858807
844 8140872 7714081 7958433
845 8163622 7806089 8037328
846 8223726 8031355 8177989
847 8253967 8173467 8278587
848 8284958 8295346 8325592
849 8368762 8412811 8420834
850 8373302 8405336 8338266
851 8384831 8411362 8394051
852 8360294 8410422 8392498
853 8333892 8290534 8344627
854 8304115 8153671 8226025
855 8256102 8059407 8110212
856 8247059 7847416 7966582
857 8148961 7705675 7934629
858 8129873 7617390 7834657
859 8006874 7422413 7790106
860 8033482 7451778 7812801
861 8028819 7428500 7779109
862 8039673 7477211 7785701
863 8058544 7555016 7862409
864 8128781 7707985 7940439
865 8154222 7804456 8028982
866 8192569 7996678 8186090
867 8251007 8115256 8248040
868 8330704 8240876 8299636
869 8406567 8384029 8395268
870 8364953 8412528 8426172
871 8391880 8450211 8386875
872 8358461 8400353 8451282
873 8313127 8295357 8336739
874 8276269 8159965 8242086
875 8282455 8084381 8192834
876 8177576 7915663 8075724
877 8116062 7759394 7997190
878 8116397 7668267 7937066
879 8015527 7503419 7844641
880 8048078 7496800 7804036
881 8045870 7445274 7790162
882 8023278 7501875 7832541
883 8046215 7589954 7870710
884 8082666 7638156 7909596
885 8128577 7700014 7942951
886 8200473 7927691 8075026
887 8231782 8004204 8111653
888 8299139 8092473 8152939
889 8365184 8284040 8231712
890 8369543 8258594 8291424
891 8395120 8325228 8266762
892 8362629 8287897 8292029
893 8368698 8244053 8263224
894 8301581 8151192 8209902
895 8229522 8028635 8189213
896 8153464 7863238 8049303
897 8081684 7725510 7992788
898 8071614 7618050 7891033
899 8007015 7414364 7802477
900 8011293 7446163 7764996
901 7980776 7404882 7766019
902 8026623 7421854 7770858
903 8032151 7514965 7835614
904 8092972 7654472 7887052
905 8133824 7745402 7930800
906 8230229 7952625 8064762
907 8291752 8057942 8150651
908 8316385 8178674 8218079
909 8404950 8327384 8268930
910 8366876 8330133 8308619
911 8394286 8320850 8305388
912 8358490 8335607 8327527
913 8338409 8297101 8301781
914 8287139 8124613 8172922
915 8284430 8033471 8114092
916 8230803 7808622 7959569
917 8127327 7685977 7903923
918 8081605 7535310 7854110
919 8001489 7430215 7770941
920 8057897 7416740 7722126
921 8014487 7394957 7729426
922 8030953 7417791 7687672
923 8059391 7501078 7755654
924 8109474 7589214 7851030
925 8144420 7700992 7879778
926 8197042 7908462 8060831
927 8275360 8003327 8124458
928 8270849 8166080 8203658
929 8379557 8331660 8310486
930 8381204 8354136 8289756
931 8367917 8305272 8317621
932 8359703 8296569 8289576
933 8369874 8256757 8265767
934 8273434 8055423 8144711
935 8234858 8000177 8109336
936 8207876 7729302 7953647
937 8120985 7615226 7882928
938 8084787 7496542 7791275
939 8042884 7316648 7661200
940 8010419 7278837 7637723
941 8018062 7298853 7665869
942 8069870 7349461 7630194
943 8069017 7408935 7710503
944 8078245 7578278 7841784
945 8128977 7678866 7894484
946 8200853 7903368 8053245
947 8300910 8057141 8102676
948 8298960 8195756 8244893
949 8356821 8319440 8299145
950 8355785 8349570 8362038
951 8397624 8384092 8347210
952 8369378 8393564 8393821
953 8328705 8296493 8328472
954 8272340 8186970 8279130
955 8271769 8073365 8187065
956 8183605 7883215 8018757
957 8168732 7733470 8003448
958 8043757 7643407 7947948
959 7999440 7520969 7834791
960 8030802 7474988 7813196
961 7960852 7427559 7802643
962 8023454 7488049 7840029
963 8060441 7591032 7901188
964 8112554 7658906 7942628
965 8146921 7762501 7952566
966 8191510 7919685 8120274
967 8255676 8011524 8100106
968 8257028 8091578 8207060
969 8350406 8250069 8237650
970 8348535 8238910 8241036
971 8363613 8265015 8221620
972 8372266 8237560 8235351
973 8327487 8144330 8169205
974 8281123 8049784 8083939
975 8250802 7922240 8039080
976 8176634 7688839 7893439
977 8118070 7598486 7816057
978 8077173 7476022 7746149
979 7987885 7342247 7680298
980 7996049 7288385 7648075
981 8001695 7268125 7614100
982 7995966 7282343 7633605
983 8032672 7369967 7722854
984 8099707 7512681 7785732
985 8156640 7662955 7869309
986 8176123 7881010 8065780
987 8237307 7998489 8065256
988 8271745 8111318 8195135
989 8335166 8298990 8290653
990 8347497 8298033 8267382
991 8408242 8327757 8282760
992 8353484 8267281 8298214
993 8283954 8203572 8255394
994 8306852 8096486 8174422
995 8263810 7989249 8069301
996 8186993 7773562 7960475
997 8100136 7663564 7931140
998 8098549 7545210 7821983
999 8007895 7400384 7759987
1000 8013065 7410992 7770589
1001 8002926 7385644 7758766
1002 8041791 7429869 7727907
1003 8063059 7505649 7832868
1004 8098706 7638398 7908986
1005 8137607 7677672 7953034
1006 8200127 7936793 8111543
1007 8245268 8044607 8147623
1008 8328158 8231073 8223286
1009 8412748 8296757 8288512
1010 8374396 8309297 8328589
1011 8360057 8348342 8351481
1012 8330545 8295720 8354796
1013 8320482 8202828 8244413
1014 8288449 8084548 8171614
1015 8238020 7978800 8106998
1016 8177231 7745582 7935063
1017 8138740 7608893 7846340
1018 8072084 7476965 7742787
1019 8033040 7272318 7626813
1020 8060638 7333502 7594510
1021 8058812 7266905 7601900
1022 8056794 7360502 7658416
1023 8112157 7433041 7692375
1024 8163977 7579149 7794556
1025 8206217 7746154 7907759
1026 8239911 7977445 8074601
1027 8312078 8127158 8138293
1028 8393849 8203831 8208006
1029 8455698 8373184 8295094
1030 8467046 8391270 8351005
1031 8409635 8414717 8351049
1032 8430785 8402441 8355064
1033 8419303 8372075 8314499
1034 8371390 8246160 8236008
1035 8351778 8092570 8121850
1036 8251210 7869547 7970264
1037 8199104 7727398 7936863
1038 8120562 7581352 7803675
1039 8060509 7400569 7696680
1040 8096071 7470156 7743269
1041 8084849 7466699 7748293
1042 8118031 7512707 7763924
1043 8127426 7647106 7853950
1044 8189438 7758421 7953268
1045 8221621 7889023 8003342
1046 8282886 8096892 8170880
1047 8408853 8287167 8258645
1048 8443690 8419123 8305763
1049 8567499 8561414 8365580
1050 8527771 8598621 8401888
1051 8567555 8621766 8420961
1052 8593508 8601381 8370947
1053 8556660 8526156 8335465
1054 8518818 8437587 8256846
1055 8488419 8339721 8229635
1056 8416420 8221619 8110774
1057 8387041 8122804 8065358
1058 8353932 7999009 8028563
1059 8228916 7861329 7949658
1060 8289817 7836180 7962792
1061 8220820 7839818 7942559
1062 8220777 7794681 7961454
1063 8285340 7898670 7982686
1064 8298088 7985077 8048148
1065 8334069 8076854 8121406
1066 8351466 8275152 8265416
1067 8414995 8371301 8303933
1068 8459010 8474260 8414790
1069 8528031 8657607 8463968
1070 8494324 8625810 8467075
1071 8522769 8640588 8481877
1072 8512779 8609700 8458096
1073 8473921 8503486 8399085
1074 8438064 8342058 8291111
1075 8389515 8217437 8205993
1076 8316603 7981854 8012351
1077 8255922 7865180 7956809
1078 8212768 7752485 7896865
1079 8155175 7552531 7783193
1080 8136041 7533810 7759721
1081 8140783 7488082 7717515
1082 8146751 7489852 7687154
1083 8182572 7551409 7793998
1084 8211817 7677384 7829438
1085 8214972 7785475 7952839
1086 8276512 8029692 8074866
1087 8339887 8142287 8173101
1088 8377387 8289674 8254776
1089 8368053 8398521 8402898
1090 8388414 8389912 8362857
1091 8366305 8345434 8322198
1092 8386305 8326194 8310280
1093 8321467 8222635 8256884
1094 8262976 8057092 8134537
1095 8200465 7896711 8083634
1096 8164634 7744853 7930644
1097 8131149 7594411 7840232
1098 8018287 7479632 7788317
1099 7944504 7319644 7734358
1100 8027765 7317522 7669816
1101 8044464 7327015 7732667
1102 7973783 7348885 7728723
1103 8016538 7427122 7786086
1104 8058409 7585891 7911500
1105 8060730 7725994 7985109
1106 8175761 7925630 8112695
1107 8222536 8033279 8152793
1108 8264932 8130613 8271405
1109 8335485 8323253 8348483
1110 8306878 8305439 8330892
1111 8353601 8324160 8327288
1112 8313801 8242357 8304421
1113 8316555 8188049 8257746
1114 8285596 8058205 8146083
1115 8226155 7907993 8040297
1116 8148421 7680045 7896336
1117 8118472 7549615 7812166
1118 8068469 7446564 7726088
1119 7956226 7244723 7673457
1120 8000852 7231718 7610123
1121 8007626 7235837 7572172
1122 8049079 7256069 7583020
1123 8016842 7363388 7687893
1124 8016378 7469503 7831450
1125 8069946 7614250 7807972
1126 8147744 7766275 7965694
1127 8225358 7889028 8033223
1128 8258865 8071143 8148172
1129 8318515 8198484 8260883
1130 8297489 8197991 8219040
1131 8325038 8177064 8281343
1132 8289708 8236521 8282419
1133 8313544 8111878 8190868
1134 8269912 8015719 8089828
1135 8208440 7890651 8033920
1136 8153425 7610344 7862409
1137 8122470 7544676 7792052
1138 8063583 7399209 7735529
1139 7951778 7242203 7635656
1140 7968308 7205623 7613638
1141 8003471 7230350 7620448
1142 7969327 7251396 7663808
1143 8023555 7372633 7737845
1144 8019220 7508409 7834131
1145 8046899 7593474 7913531
1146 8130292 7815122 8036336
1147 8201866 7966444 8120616
1148 8243170 8111664 8161611
1149 8319632 8236585 8245648
1150 8317537 8246391 8297139
1151 8322596 8234523 8298969
1152 8280498 8176532 8284953
1153 8247091 8086135 8219924
1154 8251425 7947868 8048027
1155 8222205 7830437 7936249
1156 8140945 7596174 7815037
1157 8085876 7426848 7679459
1158 8075356 7273953 7504577
1159 8091173 7040865 7361772
1160 8072872 6972484 7227763
1161 8115816 6838693 7110870
1162 8110404 6793886 7007895
1163 8182790 6780189 6963835
1164 8223216 6872844 7013162
1165 8257133 6955494 7083993
1166 8313530 7173690 7203580
1167 8387749 7258670 7230078
1168 8430572 7341187 7267990
1169 8500939 7495276 7348542
1170 8526107 7414721 7293422
1171 8504297 7493888 7254303
1172 8552517 7490968 7290400
1173 8597588 7454560 7226434
1174 8583477 7392240 7190774
1175 8650369 7452042 7156607
1176 8649470 7397851 7081969
1177 8738708 7419125 7069952
1178 8849545 7540266 7010742
1179 8918263 7675294 7118972
1180 9081429 8028511 7299170
1181 9171404 8385610 7534723
1182 9355087 8852695 7872527
1183 9531186 9253294 8097408
1184 9759459 9731413 8350676
1185 9860678 10100489 8634732
1186 10006064 10583470 9015851
1187 9942234 11002031 9481130
1188 9711849 11555116 10270484
1189 9572593 12093212 10908065
1190 9406498 12494127 11516975
1191 9320322 12761822 11874826
1192 9175823 12967916 12208561
1193 9106808 13156153 12460712
1194 9081055 13299529 12610735
1195 9023088 13372354 12745541
1196 8974581 13200632 12585231
1197 8901248 13010933 12477457
1198 8810307 12916522 12492123
1199 8725229 12827270 12472268
1200 8768869 12647063 12299843
1201 8700626 12200269 11909902
1202 8451407 11749303 11692996
1203 8223061 11322968 11482753
1204 8071235 10930028 11152163
1205 8019333 10288347 10653044
1206 7846333 9901026 10387457
1207 7634450 9561312 10272886
1208 7526545 9294996 10112343
1209 7620269 8994472 9717559
1210 7659093 8647655 9300266
1211 7711871 8356990 9017416
1212 7744628 8188617 8778003
1213 7758272 7999081 8605319
1214 7772773 7843051 8444530
1215 7737057 7635528 8195656
1216 7776266 7267764 7871666
1217 7730572 7078002 7725031
1218 7669096 6837812 7559477
1219 7612049 6669095 7397972
1220 7661305 6660683 7364540
1221 7667363 6631011 7320907
1222 7696770 6690463 7291375
1223 7812016 6783184 7346056
1224 7881438 6913305 7401628
1225 7937711 7030853 7460041
1226 8060938 7288516 7618470
1227 8132692 7527041 7710686
1228 8247474 7728552 7800470
1229 8305370 7939977 8003282
1230 8330948 7931400 8018600
1231 8332764 8056502 8017287
1232 8348811 8023960 8052695
1233 8296664 7946884 7981063
1234 8255227 7754783 7895755
1235 8181211 7675532 7858886
1236 8160288 7480659 7686060
1237 8103110 7351653 7651744
1238 8014197 7230469 7594456
1239 7938775 7117556 7499992
1240 7949274 7103343 7467652
1241 7940110 7107464 7518687
1242 7956467 7132092 7510900
1243 8011709 7229893 7594382
1244 8022333 7335232 7653881
1245 8083934 7446830 7704212
1246 8140683 7653687 7881922
1247 8184739 7782721 7938344
1248 8248041 7886337 8015455
1249 8296697 8019465 8081254
1250 8295692 7992764 8096833
1251 8357529 8028226 8046800
1252 8320090 7984007 8056710
1253 8305607 7863893 7955210
1254 8253431 7783442 7853114
1255 8262874 7626857 7797235
1256 8167213 7434658 7604113
1257 8082272 7224976 7542457
1258 8007662 7137000 7478594
1259 7961451 6999485 7411407
1260 7988703 7032571 7387290
1261 7976439 6985398 7337788
1262 8017780 7067668 7393514
1263 8095289 7156716 7457000
1264 8076244 7264875 7572933
1265 8079902 7390460 7659785
1266 8147739 7622820 7830181
1267 8244178 7735939 7853242
1268 8299716 7872471 7917538
1269 8373902 8040496 8002825
1270 8328913 8089035 8027756
1271 8366576 8096582 8103848
1272 8383408 8074874 8077619
1273 8315521 7981910 8027428
1274 8316382 7892745 7924343
1275 8231196 7783077 7882292
1276 8185061 7547746 7722362
1277 8115113 7448910 7682739
1278 8094229 7300185 7584753
1279 8045111 7169816 7511501
1280 8039250 7168348 7498409
1281 8010458 7153651 7471514
1282 8030083 7141155 7484854
1283 8068871 7248081 7548887
1284 8115038 7369322 7641541
1285 8172893 7468671 7680524
1286 8226447 7703262 7823536
1287 8275891 7777906 7858391
1288 8329506 7929362 7970374
1289 8428714 8083561 8019746
1290 8441576 8081001 8025721
1291 8407537 8069473 8045427
1292 8370500 8022929 8053954
1293 8341007 8019403 8012515
1294 8307977 7893849 7963580
1295 8291839 7808210 7831667
1296 8253020 7590316 7741696
1297 8142983 7497334 7648044
1298 8103067 7306761 7570881
1299 8065289 7180333 7502669
1300 8050425 7160572 7495108
1301 8050605 7110848 7441081
1302 8064666 7154199 7421259
1303 8098295 7257128 7551405
1304 8149357 7377299 7583048
1305 8181481 7502662 7680385
1306 8227590 7699268 7796856
1307 8290938 7812727 7905774
1308 8361325 7962154 7961007
1309 8412834 8132624 8056229
1310 8396862 8114373 8048503
1311 8435570 8201179 8127259
1312 8427263 8156283 8098271
1313 8397618 8144118 8064127
1314 8397547 8040909 7981088
1315 8327357 7857888 7907781
1316 8233019 7601226 7670714
1317 8205750 7487675 7661025
1318 8137665 7396192 7577261
1319 8070831 7213862 7506891
1320 8118987 7253567 7487248
1321 8102327 7202234 7524898
1322 8072305 7224825 7453427
1323 8103797 7348220 7580765
1324 8188911 7454693 7656583
1325 8213383 7536568 7664093
1326 8323624 7754306 7818186
1327 8334449 7876889 7868419
1328 8398217 8033488 8027224
1329 8458402 8159749 8061921
1330 8462848 8156635 8046804
1331 8502709 8175858 8031407
1332 8465205 8191830 8061335
1333 8432190 8111963 8044487
1334 8379273 8046407 7969317
1335 8391045 7925988 7889287
1336 8298058 7699041 7764096
1337 8238187 7591314 7702872
1338 8199234 7411736 7604043
1339 8127712 7343879 7558459
1340 8179987 7345823 7538563
1341 8158486 7317600 7544316
1342 8159874 7329652 7522966
1343 8184543 7465460 7643351
1344 8244307 7554208 7678706
1345 8298830 7676236 7711277
1346 8392505 7845464 7832913
1347 8450492 7989381 7853908
1348 8478418 8110517 7969110
1349 8590986 8283541 8085162
1350 8587653 8270865 8023214
1351 8624727 8295017 8065258
1352 8628065 8303298 8035073
1353 8590177 8231245 7966400
1354 8550240 8096363 7887768
1355 8571887 7988517 7784230
1356 8472195 7791035 7703241
1357 8372054 7643498 7638529
1358 8376853 7535970 7550768
1359 8279650 7412369 7427615
1360 8332951 7426629 7450973
1361 8299799 7422520 7438974
1362 8392745 7483063 7481759
1363 8426659 7591718 7578363
1364 8427543 7774407 7676082
1365 8512242 7878669 7720531
1366 8604325 8112167 7870293
1367 8678534 8267125 7957079
1368 8710799 8425088 8036472
1369 8811835 8587524 8149540
1370 8787106 8561123 8142932
1371 8849662 8560945 8104774
1372 8836730 8569452 8097695
1373 8774118 8482502 8023978
1374 8784834 8387177 7955437
1375 8766857 8297114 7834635
1376 8717142 7998690 7695267
1377 8648702 7901826 7613086
1378 8614730 7808473 7554400
1379 8552536 7657664 7454980
1380 8594349 7702619 7478910
1381 8564429 7685133 7489772
1382 8582461 7770252 7505041
1383 8702387 7900311 7555253
1384 8719541 8071068 7675583
1385 8767778 8204243 7793889
1386 8904017 8458062 7915389
1387 8959899 8604802 7988842
1388 9010204 8707801 8071172
1389 9086464 8873883 8173803
1390 9135607 8878543 8140423
1391 9116782 8946626 8138340
1392 9145678 8915076 8181812
1393 9109879 8882162 8110204
1394 9077241 8771030 8055179
1395 9059536 8719736 7997812
1396 8954540 8559331 7941522
1397 8975250 8470224 7839342
1398 8953609 8364582 7757626
1399 8880254 8234755 7696941
1400 8916640 8239512 7682939
1401 8908071 8190032 7635729
1402 8901396 8240487 7672058
1403 8959595 8323022 7742736
1404 9032664 8441321 7769159
1405 9052052 8527857 7799959
1406 9152388 8732870 7965117
1407 9202657 8883173 7994833
1408 9274780 8990434 8108091
1409 9343154 9150228 8151340
1410 9356604 9098871 8116560
1411 9376035 9098813 8068873
1412 9336715 9089884 8134067
1413 9324610 9007266 8060497
1414 9275255 8928795 7991545
1415 9225264 8825857 7936331
1416 9198341 8612060 7785341
1417 9126918 8522758 7777137
1418 9063310 8427042 7757510
1419 9053147 8384227 7707693
1420 9026730 8419927 7686690
1421 9008950 8374047 7746204
1422 9038946 8430486 7791879
1423 9050997 8563043 7874180
1424 9105952 8680871 7973950
1425 9118721 8815547 8072577
1426 9220481 8993913 8180187
1427 9255325 9103286 8199227
1428 9296876 9232341 8273946
1429 9360764 9375035 8364262
1430 9320464 9343048 8371369
1431 9355569 9328285 8311375
1432 9311118 9274008 8274111
1433 9288641 9192941 8270878
1434 9245794 9084522 8169933
1435 9208225 8950174 8129059
1436 9102649 8743749 7987452
1437 9013902 8602066 7905499
1438 9017877 8479561 7839293
1439 8890610 8329646 7771135
1440 8930291 8306291 7769885
1441 8877862 8301312 7774101
1442 8860931 8326167 7825725
1443 8899141 8418700 7855051
1444 8919453 8562062 8000925
1445 8962102 8659169 8068860
1446 8991986 8847050 8235128
1447 9040691 8943644 8288380
1448 9087777 9057489 8337650
1449 9106527 9240549 8472000
1450 9087314 9214912 8502254
1451 9114380 9229185 8511129
1452 9060978 9188483 8513130
1453 9008395 9105213 8443378
1454 8967471 8917662 8308046
1455 8909409 8876726 8302640
1456 8852029 8584053 8126487
1457 8723163 8474736 8086919
1458 8697129 8295803 8015985
1459 8582349 8133286 7923930
1460 8622465 8143008 7889218
1461 8541654 8072892 7860287
1462 8551665 8052561 7874172
1463 8547695 8159355 7957234
1464 8574688 8284602 8001436
1465 8636771 8379108 8105558
1466 8722402 8596135 8246932
1467 8710592 8680616 8352425
1468 8757143 8830786 8440367
1469 8819623 8962595 8505792
1470 8806897 8898760 8492742
1471 8798789 8949190 8488591
1472 8772976 8880239 8481614
1473 8713492 8764693 8373787
1474 8710159 8578312 8282855
1475 8647863 8454703 8191757
1476 8498548 8201908 8054251
1477 8451785 8105010 8008850
1478 8398847 7981472 7963295
1479 8350282 7816022 7862229
1480 8297583 7812320 7840538
1481 8274481 7762707 7853090
1482 8327175 7782842 7814820
1483 8311423 7856111 7863856
1484 8333782 7963967 7943621
1485 8351733 8066725 8073499
1486 8416461 8289294 8200021
1487 8507461 8415458 8270472
1488 8558766 8520172 8344544
1489 8613918 8653423 8393578
1490 8591872 8606998 8388576
1491 8576758 8617878 8385653
1492 8569711 8557868 8347113
1493 8563340 8512474 8294579
1494 8457150 8347856 8287057
1495 8423414 8206489 8159881
1496 8316718 7986673 8036155
1497 8256154 7840698 7934208
1498 8213554 7718021 7835420
1499 8150041 7522347 7724708
1500 8160598 7514557 7718037
1501 8129679 7464666 7720246
1502 8142840 7552215 7738218
1503 8165354 7608220 7821174
1504 8237795 7781872 7897105
1505 8251373 7881300 7999085
1506 8316391 8121325 8173623
1507 8375448 8192583 8199860
1508 8434334 8355822 8323475
1509 8512883 8516656 8374786
1510 8467364 8496206 8410011
1511 8519303 8522816 8372181
1512 8459889 8464535 8340568
1513 8408800 8375680 8313842
1514 8342990 8187839 8186805
1515 8322317 8044598 8120529
1516 8275454 7884964 7942080
1517 8201287 7747881 7913572
1518 8199859 7610962 7760279
1519 8086666 7420951 7706331
1520 8083915 7482244 7712321
1521 8044720 7463775 7780821
1522 8105099 7495609 7767807
1523 8128617 7594353 7789334
1524 8225693 7750343 7876135
1525 8226926 7829274 7965854
1526 8278519 8057283 8104331
1527 8385729 8129413 8150086
1528 8345101 8260268 8263133
1529 8477555 8417724 8288839
1530 8473474 8413513 8284810
1531 8463725 8425212 8272300
1532 8427525 8381972 8340528
1533 8409145 8316206 8258080
1534 8379148 8201714 8183138
1535 8361883 8134351 8132286
1536 8293707 7884517 7939502
1537 8201285 7750122 7898787
1538 8160552 7639594 7841685
1539 8093821 7535897 7750046
1540 8100811 7490333 7768147
1541 8126466 7491757 7727569
1542 8095788 7496414 7723131
1543 8175559 7598861 7779453
1544 8179629 7776922 7934040
1545 8261805 7902615 8036387
1546 8292203 8116551 8154625
1547 8398332 8214010 8216493
1548 8466493 8374486 8268395
1549 8480153 8473163 8380318
1550 8450878 8541699 8455565
1551 8472045 8549820 8442298
1552 8486865 8541281 8449401
1553 8430575 8399676 8369126
1554 8384736 8241330 8242363
1555 8340518 8136601 8174480
1556 8278292 7933493 8005122
1557 8188367 7796973 7949700
1558 8153296 7630267 7870580
1559 8112024 7508128 7758921
1560 8104474 7513263 7732355
1561 8089527 7443107 7751724
1562 8104938 7509428 7752884
1563 8120911 7611404 7895571
1564 8180506 7747620 7929454
1565 8178964 7878450 7986498
1566 8301254 8148026 8190719
1567 8356164 8231253 8215746
1568 8390342 8343224 8329421
1569 8467640 8522157 8413727
1570 8500790 8526821 8440246
1571 8486018 8575337 8437947
1572 8428433 8487153 8430122
1573 8348757 8391886 8355116
1574 8399948 8289371 8297398
1575 8351341 8239235 8247941
1576 8293977 8025916 8060423
1577 8217251 7856826 8025289
1578 8143175 7779312 7897205
1579 8104624 7607603 7837677
1580 8123116 7594086 7839873
1581 8089960 7545429 7834474
1582 8153044 7617113 7822715
1583 8173803 7716067 7894686
1584 8200706 7839417 8007610
1585 8171121 7948307 8130101
1586 8309434 8152550 8253317
1587 8352151 8349300 8355290
1588 8408940 8467491 8405606
1589 8499329 8616140 8461861
1590 8475544 8582327 8448258
1591 8501364 8605997 8451645
1592 8441329 8546052 8417385
1593 8402557 8401268 8370381
1594 8364472 8294978 8274934
1595 8350697 8210189 8220324
1596 8247003 8020988 8078164
1597 8214028 7878745 8042798
1598 8154486 7765605 7985197
1599 8102152 7605424 7848931
1600 8095048 7611896 7866100
1601 8087571 7614255 7880128
1602 8074201 7603942 7901952
1603 8136845 7695554 7936834
1604 8163506 7812305 8048258
1605 8217735 7927437 8083217
1606 8296747 8157688 8239277
1607 8357101 8252868 8285569
1608 8337991 8382195 8362072
1609 8459759 8508725 8441377
1610 8429783 8534888 8418321
1611 8451645 8529633 8463469
1612 8427713 8506114 8442198
1613 8423280 8415406 8376520
1614 8345226 8260860 8300713
1615 8304758 8180352 8230638
1616 8219618 7934715 8053985
1617 8167338 7770365 7954052
1618 8150685 7648256 7866769
1619 8040912 7477691 7735175
1620 8037266 7495537 7785920
1621 8012405 7418376 7746340
1622 8063585 7465774 7734455
1623 8104869 7498894 7811071
1624 8090440 7644957 7860951
1625 8156653 7705076 7909033
1626 8261554 7917128 8014726
1627 8292936 8071255 8127824
1628 8338186 8221160 8220542
1629 8417577 8335555 8269695
1630 8415224 8323015 8241433
1631 8396136 8319881 8271663
1632 8381778 8274194 8300942
1633 8339953 8207276 8209591
1634 8315170 8056390 8124299
1635 8264109 7978047 8032996
1636 8198704 7749659 7911527
1637 8120456 7606257 7832825
1638 8078158 7467293 7787741
1639 7999999 7319870 7683248
1640 8043948 7348194 7677112
1641 7997428 7335883 7662905
1642 8031509 7357096 7697199
1643 8059853 7444884 7837578
1644 8114793 7620836 7842714
1645 8165071 7735629 7944304
1646 8230548 7978649 8066643
1647 8288470 8074007 8155283
1648 8335630 8205735 8245871
1649 8425963 8366226 8276017
1650 8406910 8353895 8372362
1651 8418168 8392410 8299175
1652 8405269 8347601 8327114
1653 8375580 8281084 8214908
1654 8321303 8100969 8149847
1655 8304243 7985776 8068660
1656 8215808 7764972 7894349
1657 8168552 7686774 7869604
1658 8104097 7577724 7814903
1659 8086723 7442255 7745072
1660 8089894 7454099 7729229
1661 8063341 7424136 7737095
1662 8079175 7446065 7748113
1663 8082444 7559983 7844722
1664 8152504 7685020 7867489
1665 8190997 7756414 7952049
1666 8261804 7997096 8115272
1667 8303526 8141130 8206843
1668 8360334 8278136 8296403
1669 8435035 8416000 8313213
1670 8414486 8387088 8312631
1671 8426655 8399875 8326822
1672 8373339 8370903 8314767
1673 8386004 8270304 8267701
1674 8351656 8209327 8215082
1675 8298117 8082981 8144206
1676 8223809 7829680 7991063
1677 8166273 7737873 7935926
1678 8084685 7584523 7855512
1679 8055533 7412714 7773662
1680 8048062 7456591 7751719
1681 8048134 7418426 7725722
1682 8088088 7423623 7714119
1683 8081499 7507623 7765144
1684 8145898 7602751 7878997
1685 8201641 7773142 7947086
1686 8220960 7936493 8104846
1687 8347765 8095617 8130084
1688 8383902 8206060 8225640
1689 8411848 8387623 8344935
1690 8405685 8379338 8383571
1691 8410695 8383281 8361058
1692 8359812 8393788 8356714
1693 8375388 8261754 8241802
1694 8330052 8139186 8199085
1695 8286026 8072485 8141531
1696 8230223 7854600 8015404
1697 8136760 7746338 7953104
1698 8083665 7576367 7854781
1699 8029208 7441473 7753419
1700 8048662 7430116 7751102
1701 8005808 7404005 7766323
1702 8034422 7417233 7716934
1703 8051786 7469998 7808879
1704 8110797 7631175 7881481
1705 8112541 7736207 7970855
1706 8208869 7970890 8100834
1707 8268100 8007184 8118821
1708 8284267 8139455 8175733
1709 8418496 8283167 8259583
1710 8378310 8279365 8257699
1711 8352283 8269190 8308798
1712 8353536 8287503 8304179
1713 8321141 8163162 8187924
1714 8317248 8044387 8139891
1715 8245541 7961316 8063232
1716 8180632 7749015 7942030
1717 8151783 7683721 7902598
1718 8094116 7552886 7871279
1719 8030417 7419364 7756307
1720 7990386 7429542 7757598
1721 8023658 7389111 7736549
1722 8026331 7453263 7776623
1723 8032105 7505195 7799123
1724 8100983 7622109 7890426
1725 8136736 7696364 7958102
1726 8227845 7968278 8100868
1727 8254215 8064729 8126326
1728 8318033 8170581 8192701
1729 8367866 8329844 8251369
1730 8412752 8311159 8318602
1731 8347332 8315525 8260095
1732 8344323 8272302 8316525
1733 8329819 8169917 8191121
1734 8265546 8037655 8143549
1735 8252641 7904282 8012350
1736 8168343 7681648 7874131
1737 8113793 7622778 7871529
1738 8101033 7482946 7767488
1739 7996997 7329180 7748459
1740 8031028 7362870 7697124
1741 7985563 7314568 7730655
1742 8017337 7342503 7717666
1743 8033010 7433195 7791247
1744 8074109 7582406 7889655
1745 8082543 7634798 7904301
1746 8235057 7899504 8103615
1747 8218181 8027941 8187090
1748 8310095 8153432 8246728
1749 8357107 8320202 8332443
1750 8364143 8283192 8301378
1751 8366040 8292588 8291801
1752 8325968 8301411 8280859
1753 8326783 8153421 8236748
1754 8230975 8072761 8178634
1755 8246657 7992418 8120480
1756 8129449 7739181 7970114
1757 8069706 7634417 7926236
1758 8053424 7537021 7844121
1759 7958401 7361268 7755741
1760 7971576 7357954 7738184
1761 7960219 7348392 7733807
1762 7973545 7370605 7769497
1763 8026575 7511031 7868384
1764 8093422 7624441 7915332
1765 8098326 7720055 8004570
1766 8181080 7970981 8163090
1767 8245533 8083485 8241528
1768 8283189 8231721 8268242
1769 8339029 8331088 8368571
1770 8347689 8324741 8328504
1771 8368039 8339548 8341287
1772 8337335 8323669 8392929
1773 8338124 8212319 8271402
1774 8294840 8105866 8196631
1775 8221387 8044505 8185983
1776 8183451 7800940 7984162
1777 8091631 7696710 7998404
1778 8029540 7585897 7944549
1779 7943402 7431786 7813562
1780 7961354 7401193 7803142
1781 7934735 7401045 7795050
1782 7997742 7482210 7849018
1783 8029647 7582775 7917465
1784 8058529 7695925 7989003
1785 8089101 7786131 8070209
1786 8183396 8014094 8180279
1787 8269874 8122253 8222675
1788 8299425 8197491 8248687
1789 8363358 8288276 8348535
1790 8355333 8314379 8303937
1791 8356094 8286350 8278724
1792 8321454 8260058 8292286
1793 8274714 8185102 8200454
1794 8274380 8039867 8148309
1795 8227149 7933925 8032774
1796 8146117 7682110 7916792
1797 8062743 7575323 7849754
1798 7994096 7416673 7800940
1799 7959627 7295764 7651380
1800 7962100 7277565 7636651
1801 7978394 7260206 7678019
1802 7984079 7285012 7661704
1803 8018968 7378405 7772543
1804 8079564 7541683 7853504
1805 8095877 7653347 7927828
1806 8189580 7895212 8102367
1807 8231629 8023965 8160652
1808 8294820 8174458 8234820
1809 8356458 8307066 8274722
1810 8338197 8258693 8306988
1811 8309410 8305097 8300980
1812 8349402 8264856 8335808
1813 8298800 8253502 8248817
1814 8252025 8097553 8200530
1815 8219132 8004220 8103098
1816 8123734 7799286 7970347
1817 8080301 7629321 7922950
1818 8037827 7495076 7829973
1819 7921784 7331137 7778141
1820 7968239 7373735 7718595
1821 7970615 7342279 7722180
1822 8014841 7373689 7723091
1823 7981544 7428512 7829001
1824 8045684 7543624 7882324
1825 8079667 7652180 7936955
1826 8148875 7868216 8102913
1827 8220841 8004329 8138606
1828 8282884 8133312 8175795
1829 8370030 8291524 8257116
1830 8342544 8278042 8363862
1831 8350002 8302608 8328456
1832 8289654 8288848 8349074
1833 8296671 8207700 8301751
1834 8256999 8092801 8217853
1835 8238686 7980629 8124984
1836 8141379 7725955 7963002
1837 8050766 7611129 7910530
1838 8034824 7487880 7831443
1839 7955813 7330391 7741006
1840 7948798 7321020 7721827
1841 7963767 7338899 7735562
1842 8011001 7390043 7781379
1843 8016145 7506348 7830178
1844 8074343 7584385 7919412
1845 8124455 7699299 7939638
1846 8182511 7968251 8099023
1847 8251382 8083244 8156089
1848 8330662 8190254 8257182
1849 8409754 8379971 8332505
1850 8399405 8400129 8350624
1851 8438313 8426506 8396259
1852 8397660 8455296 8358690
1853 8365860 8316579 8345047
1854 8300567 8189408 8293930
1855 8275403 8104475 8177606
1856 8182860 7840772 7985525
1857 8128392 7738060 7952931
1858 8121181 7588488 7825665
1859 8057114 7431114 7734860
1860 8049860 7388123 7750962
1861 8022868 7382445 7690958
1862 8058051 7416205 7726492
1863 8063049 7507094 7815358
1864 8120497 7651770 7913780
1865 8197937 7821298 7981007
1866 8242824 8054221 8164626
1867 8288685 8205359 8243618
1868 8358622 8340968 8309797
1869 8479682 8462881 8387181
1870 8440752 8482418 8373642
1871 8480818 8495054 8435706
1872 8457426 8500341 8400360
1873 8435716 8412045 8337973
1874 8403342 8295692 8239334
1875 8353737 8161121 8156439
1876 8319429 7952387 8008460
1877 8234107 7853827 7940714
1878 8206222 7694349 7911071
1879 8157701 7604406 7828593
1880 8172544 7631892 7814692
1881 8180078 7651091 7846769
1882 8195144 7710390 7903266
1883 8211354 7863139 7971061
1884 8255186 7945510 8095742
1885 8317020 8096412 8168770
1886 8357718 8349948 8306869
1887 8436345 8459730 8380790
1888 8455435 8557205 8444654
1889 8518048 8690175 8521636
1890 8529599 8657538 8491505
1891 8508714 8660255 8506162
1892 8503440 8597147 8513246
1893 8418289 8527653 8410921
1894 8365438 8388093 8380823
1895 8337985 8250893 8308857
1896 8269203 8052573 8185020
1897 8242735 7924496 8060432
1898 8151869 7816751 8029755
1899 8073082 7632559 7963514
1900 8078900 7655821 7904018
1901 8074598 7633419 7880464
1902 8097229 7652899 7916179
1903 8126819 7746697 8028871
1904 8212025 7889649 8072478
1905 8226350 7954618 8065725
1906 8323855 8143084 8225974
1907 8325934 8255553 8230997
1908 8413616 8296184 8277551
1909 8449574 8389935 8340587
1910 8417190 8389286 8350628
1911 8412256 8382625 8272322
1912 8399770 8318630 8311203
1913 8355958 8188330 8205066
1914 8311859 8074092 8145392
1915 8281241 7972223 8071763
1916 8136122 7715496 7928659
1917 8064620 7555214 7852974
1918 8017768 7480449 7799909
1919 7965328 7285747 7679646
1920 7929060 7327962 7746065
1921 7927032 7293714 7744889
1922 7958369 7276200 7714589
1923 7945417 7357297 7755820
1924 8034080 7474489 7827062
1925 8033717 7548012 7861290
1926 8137514 7768567 7985813
1927 8201247 7863738 8030889
1928 8199684 8006036 8155148
1929 8290279 8200078 8239375
1930 8290208 8183589 8241721
1931 8322952 8225549 8239381
1932 8287107 8168342 8263669
1933 8267532 8074377 8218599
1934 8221558 8016911 8172476
1935 8182932 7901730 8100728
1936 8092802 7668628 7918871
1937 8019002 7522097 7890961
1938 7975751 7390722 7795216
1939 7896082 7241020 7696925
1940 7962605 7258198 7645924
1941 7947551 7213308 7639279
1942 7976425 7260637 7614543
1943 7928849 7338840 7712600
1944 8008607 7462724 7865454
1945 8037778 7612865 7898695
1946 8145198 7858917 8112122
1947 8172103 7981987 8140705
1948 8245286 8113370 8255368
1949 8289411 8262096 8353916
1950 8285756 8250133 8325718
1951 8321289 8216961 8299696
1952 8287316 8217987 8273170
1953 8260420 8082310 8212791
1954 8191617 7921089 8099995
1955 8157794 7824108 8026362
1956 8117099 7533852 7780282
1957 8030967 7421989 7739236
1958 7997423 7268429 7668655
1959 7885673 7142766 7569024
1960 7909829 7090947 7567904
1961 7912234 7094251 7524380
1962 7905905 7158279 7601369
1963 7949446 7286480 7649589
1964 8020239 7425906 7766885
1965 8074792 7524725 7852809
1966 8106586 7788637 8013270
1967 8194936 7919427 8074298
1968 8222758 8051083 8187295
1969 8306216 8147927 8240041
1970 8300462 8207717 8280790
1971 8279593 8184495 8229386
1972 8300167 8144721 8220558
1973 8241786 8065214 8181791
1974 8222274 7898817 8100133
1975 8194256 7828899 8002929
1976 8067425 7560638 7855255
1977 8067758 7432298 7755391
1978 7991835 7291495 7638844
1979 7944979 7166130 7611962
1980 7952217 7183863 7605364
1981 7954104 7143040 7595044
1982 7985711 7244520 7656042
1983 8019047 7330711 7727235
1984 8031691 7464860 7743256
1985 8094377 7513991 7815642
1986 8195878 7752995 7897240
1987 8263870 7805470 7903855
1988 8332243 7829842 7860850
1989 8426625 7916521 7815887
1990 8436132 7805017 7716044
1991 8459963 7739523 7603006
1992 8458283 7636627 7536164
1993 8447469 7448789 7364345
1994 8413419 7314234 7260552
1995 8365521 7127671 7150609
1996 8238828 6871717 6975234
1997 8223659 6758337 6869081
1998 8188245 6632668 6750555
1999 8135539 6438211 6648161
2000 8171198 6540860 6688661
2001 8230591 6586274 6703768
2002 8306741 6778331 6809857
2003 8421743 6988141 6902219
2004 8583979 7300719 7098043
2005 8737063 7578505 7212108
2006 8977398 7994091 7367192
2007 9196684 8326980 7474827
2008 9388826 8794495 7760923
2009 9615430 9312492 8036884
2010 9786666 9752756 8359639
2011 9898252 10061578 8469769
2012 9996647 10371747 8709445
2013 10078016 10513948 8817006
2014 10058410 10609593 8933797
2015 10034463 10826740 9188729
2016 9713055 10968165 9679094
2017 9403009 11269573 10258087
2018 9169035 11541111 10769306
2019 8981482 11731186 11156831
2020 8886463 12023521 11502702
2021 8841775 12232718 11775764
2022 8850845 12506884 12035881
2023 8875314 12861387 12363428
2024 8934385 13088189 12529533
2025 9023268 13062260 12505919
2026 9011394 13380948 12764719
2027 8966792 13506180 12932454
2028 9003625 13510112 12858255
2029 9036814 13224416 12584305
2030 8750870 12646568 12228401
2031 8530833 12140474 11990733
2032 8324577 11617556 11649660
2033 8195412 10776422 10954618
2034 7977640 9965515 10372605
2035 7712165 9403102 10064063
2036 7490806 8746208 9608244
2037 7374882 8215448 9145306
2038 7427750 7793766 8754765
2039 7424526 7422998 8328377
2040 7450237 7174127 8101583
2041 7468919 7138189 8019987
2042 7521011 7176055 7976071
2043 7603210 7167106 7895116
2044 7679528 7162830 7828642
2045 7727082 7190571 7805594
2046 7783063 7335918 7897825
2047 7881079 7370893 7889468
2048 7948280 7481105 7840490
2049 8044536 7567441 7924630
2050 8043112 7618294 7896938
2051 8148564 7599813 7876824
2052 8139974 7597152 7784709
2053 8151214 7508993 7765852
2054 8135743 7493698 7691834
2055 8121887 7427480 7639624
2056 8102052 7289576 7563901
2057 8021910 7244332 7552453
2058 8042851 7119340 7480650
2059 7933831 7075295 7408822
2060 7966338 7009876 7439680
2061 7933316 7044548 7445807
2062 7964253 7104084 7501742
2063 7990440 7172068 7566309
2064 8012777 7274565 7640013
2065 8050659 7389518 7728472
2066 8119005 7659146 7881025
2067 8192974 7761495 7951456
2068 8210116 7879730 8002959
2069 8291490 7996414 8064150
2070 8274841 8029571 8117882
2071 8284627 8057625 8110757
2072 8258521 8008564 8104946
2073 8213802 7919117 8037688
2074 8206756 7751072 7949561
2075 8178737 7687696 7877353
2076 8113145 7419623 7715558
2077 7996024 7330134 7670655
2078 7958632 7167567 7552945
2079 7918701 7014210 7443820
2080 7908178 7014598 7437982
2081 7886362 7009829 7467975
2082 7943398 7071823 7485205
2083 7962262 7156691 7569580
2084 8027204 7251270 7603705
2085 8071031 7385913 7669653
2086 8137258 7594475 7849783
2087 8208637 7720030 7904072
2088 8261231 7862661 7986586
2089 8285594 8044488 8046700
2090 8298273 8001733 8096363
2091 8292636 8002173 8047615
2092 8291779 7957918 8072516
2093 8277910 7880837 8001068
2094 8180137 7769394 7905752
2095 8183776 7692177 7873958
2096 8120945 7407688 7704199
2097 8028197 7331792 7645326
2098 8012823 7209013 7523915
2099 7928060 7049871 7497729
2100 7936303 7093150 7470517
2101 7965380 7073587 7508275
2102 7969915 7141097 7509234
2103 7993297 7241456 7599756
2104 8064862 7387986 7700142
2105 8066104 7531979 7795542
2106 8173119 7765899 7973446
2107 8191169 7858312 7996255
2108 8259988 8002490 8126824
2109 8326063 8162565 8196734
2110 8339724 8107542 8152544
2111 8313102 8101075 8119988
2112 8301675 8079021 8121958
2113 8319545 8006366 8058599
2114 8206183 7858928 7956022
2115 8189808 7764928 7899426
2116 8126960 7541553 7748308
2117 8078020 7404120 7694612
2118 7993006 7306786 7640770
2119 7905525 7175020 7593132
2120 7971852 7219862 7581382
2121 7992134 7186721 7595561
2122 7997642 7214440 7541523
2123 8017639 7276792 7619719
2124 8078275 7400611 7686920
2125 8086087 7502307 7746433
2126 8175040 7745088 7920634
2127 8260271 7873032 8004304
2128 8299220 8079029 8097355
2129 8391188 8179275 8204045
2130 8346107 8183143 8179540
2131 8371292 8161294 8179310
2132 8348945 8176367 8156055
2133 8322504 8076115 8147366
2134 8278526 7968431 8054462
2135 8253309 7866624 8004695
2136 8168708 7642988 7822461
2137 8097168 7516028 7805478
2138 8089829 7379773 7701389
2139 7980674 7238959 7591575
2140 8050075 7265377 7577904
2141 8015893 7281405 7609470
2142 8041093 7274189 7598368
2143 8056825 7389465 7658477
2144 8128688 7538598 7763941
2145 8174511 7612773 7811223
2146 8229670 7818906 7963861
2147 8331157 7961209 7994435
2148 8352987 8087703 8096336
2149 8417672 8218514 8158767
2150 8399390 8232826 8132655
2151 8433710 8214947 8149263
2152 8420963 8195557 8126111
2153 8379164 8125040 8104489
2154 8324190 7980400 8027215
2155 8281571 7916142 7954877
2156 8243336 7645185 7808069
2157 8194989 7574186 7762520
2158 8095204 7470307 7699645
2159 8074748 7310092 7554940
2160 8078081 7269243 7560562
2161 8094568 7260024 7514230
2162 8140013 7336661 7588159
2163 8168316 7433065 7660127
2164 8190500 7601525 7753988
2165 8243573 7698467 7842272
2166 8304571 7976859 7991412
2167 8348398 8069393 8070982
2168 8448783 8220840 8124512
2169 8505459 8367609 8249690
2170 8463147 8349916 8277340
2171 8483742 8381630 8266721
2172 8485612 8374924 8222918
2173 8454233 8266063 8163798
2174 8434039 8137464 8114877
2175 8404375 8075968 7994164
2176 8317274 7809646 7847987
2177 8266655 7756078 7788259
2178 8239280 7585778 7710462
2179 8200121 7419711 7612974
2180 8226990 7450826 7567684
2181 8208691 7423356 7587775
2182 8225630 7508035 7619068
2183 8272100 7519424 7671762
2184 8310446 7696098 7752806
2185 8327118 7785778 7809961
2186 8437101 8084110 7964678
2187 8501299 8164026 8019957
2188 8565364 8299643 8109578
2189 8631423 8446753 8172954
2190 8614468 8465310 8194668
2191 8636571 8519070 8222833
2192 8645829 8476501 8213408
2193 8638657 8402261 8134203
2194 8596567 8257091 8069455
2195 8586673 8164092 7967038
2196 8488870 7928372 7821677
2197 8453839 7823782 7725396
2198 8400346 7719807 7662828
2199 8370366 7571671 7588686
2200 8380951 7613719 7575530
2201 8389369 7613027 7629281
2202 8412157 7708484 7637618
2203 8476280 7823702 7705358
2204 8534505 7934167 7793311
2205 8569541 8039685 7849792
2206 8649064 8334399 8042781
2207 8739875 8467599 8069759
2208 8782721 8580104 8176770
2209 8866011 8750545 8194460
2210 8873523 8739602 8251522
2211 8909924 8784800 8223390
2212 8898301 8729932 8232382
2213 8873493 8642534 8083878
2214 8854287 8536298 8041665
2215 8836164 8434819 7981820
2216 8737506 8238782 7842684
2217 8745559 8153317 7816645
2218 8728642 8061065 7700108
2219 8625894 7948788 7659942
2220 8702808 7997379 7623367
2221 8720732 8003012 7660553
2222 8730924 8044990 7678926
2223 8756834 8183016 7766966
2224 8847237 8339316 7848988
2225 8906068 8485720 7956109
2226 8959554 8746157 8093095
2227 9051191 8845018 8135504
2228 9127593 8988994 8233258
2229 9226120 9179099 8326056
2230 9189785 9152069 8292129
2231 9250401 9129762 8293190
2232 9186879 9124779 8273028
2233 9217962 9042690 8216684
2234 9153738 8901142 8108840
2235 9141484 8823490 8030086
2236 9079859 8579020 7847015
2237 9010930 8438755 7792611
2238 9009537 8324425 7701133
2239 8945134 8220064 7618222
2240 8968309 8249941 7608150
2241 8977343 8264591 7687224
2242 9023554 8355024 7706450
2243 9011943 8482568 7803588
2244 9074077 8593773 7884854
2245 9128577 8719268 7929519
2246 9183042 8970778 8129047
2247 9249009 9074092 8197511
2248 9305098 9268175 8304488
2249 9377965 9400872 8385550
2250 9351458 9403367 8360344
2251 9386527 9367259 8393749
2252 9387210 9358357 8373458
2253 9301602 9280434 8363247
2254 9289862 9154871 8268454
2255 9247900 9047681 8149119
2256 9166457 8819779 8027143
2257 9097441 8723105 7979230
2258 9045995 8558019 7919520
2259 8959652 8486665 7813041
2260 9004229 8482593 7834409
2261 8991268 8480369 7857382
2262 8989116 8474215 7848807
2263 8989439 8540194 7920451
2264 9046077 8676812 7955671
2265 9058304 8741215 8054844
2266 9127558 8994112 8205495
2267 9173905 9029085 8240134
2268 9187270 9186786 8328712
2269 9249620 9318856 8449935
2270 9260903 9307915 8452674
2271 9226927 9349334 8460093
2272 9193794 9306445 8473204
2273 9161853 9236655 8407287
2274 9116260 9097156 8364632
2275 9058771 8971055 8259636
2276 8920414 8712716 8141577
2277 8858748 8604197 8040634
2278 8821971 8412042 7962461
2279 8746962 8254525 7846963
2280 8721508 8195457 7852407
2281 8716369 8161313 7834471
2282 8688438 8213196 7839741
2283 8729589 8282430 7928657
2284 8733608 8371100 7984994
2285 8782790 8461913 8085338
2286 8844186 8708323 8231468
2287 8870912 8776922 8265285
2288 8876144 8898836 8366612
2289 8930759 9027015 8451386
2290 8895131 9011903 8486421
2291 8887515 9015843 8460697
2292 8857191 8965845 8462169
2293 8841848 8875512 8391924
2294 8754286 8694248 8286530
2295 8726081 8589687 8196399
2296 8621761 8336135 8084616
2297 8582312 8209624 8060249
2298 8495370 8060925 7969349
2299 8419779 7912230 7881637
2300 8401908 7893444 7825899
2301 8394759 7858747 7863369
2302 8376805 7931004 7896713
2303 8401957 8009336 7984047
2304 8480846 8141173 8088403
2305 8457077 8264175 8177710
2306 8522416 8502195 8329859
2307 8561507 8565328 8355846
2308 8561671 8641810 8456250
2309 8630122 8771052 8518226
2310 8635411 8721584 8493500
2311 8635533 8735684 8471349
2312 8568328 8673636 8459774
2313 8592395 8550425 8371164
2314 8490164 8418770 8281488
2315 8475455 8278841 8186821
2316 8372195 8006816 7996315
2317 8293988 7872878 7927010
2318 8206391 7739922 7846837
2319 8180961 7612643 7789488
2320 8178098 7552542 7782943
2321 8155042 7573707 7787544
2322 8164474 7580106 7786001
2323 8214190 7723634 7851121
2324 8260716 7839362 7948546
2325 8229442 7922125 8012568
2326 8318645 8149741 8190500
2327 8370660 8250367 8180693
2328 8438188 8355267 8296227
2329 8487426 8486377 8350863
2330 8493367 8511344 8394240
2331 8458033 8433585 8373654
2332 8432902 8433465 8350686
2333 8396996 8293075 8279760
2334 8373238 8180934 8191318
2335 8380289 8075804 8112065
2336 8272458 7836235 7937188
2337 8207800 7765511 7909109
2338 8136750 7642547 7862134
2339 8118989 7527783 7790818
2340 8143803 7515033 7786946
2341 8080643 7506946 7759405
2342 8129311 7581150 7821396
2343 8109868 7724492 7919753
2344 8171654 7843048 8029602
2345 8199443 7920301 8092995
2346 8300845 8188846 8257847
2347 8359058 8268211 8303744
2348 8382398 8348116 8369478
2349 8436152 8514357 8411014
2350 8427991 8521679 8432787
2351 8449858 8453868 8424081
2352 8393611 8385307 8343964
2353 8430886 8240719 8235426
2354 8369073 8120185 8100957
2355 8299623 8005182 8076941
2356 8230944 7716124 7839582
2357 8191078 7615609 7764859
2358 8161248 7495681 7748443
2359 8073484 7387409 7666593
2360 8084771 7315655 7637151
2361 8087752 7344421 7644605
2362 8107593 7391282 7677416
2363 8122897 7506857 7736828
2364 8158114 7621739 7830387
2365 8220950 7762137 7932460
2366 8289802 8036831 8094357
2367 8369054 8126870 8174075
2368 8369861 8318986 8279236
2369 8461823 8474289 8351797
2370 8440290 8469532 8376032
2371 8465483 8468554 8355432
2372 8438624 8404267 8348641
2373 8409760 8340890 8289377
2374 8378388 8215021 8199659
2375 8337991 8111248 8152703
2376 8257894 7861111 7983250
2377 8200273 7749365 7918747
2378 8134495 7614837 7814616
2379 8097497 7482918 7716997
2380 8094931 7425761 7703361
2381 8111976 7467344 7694178
2382 8136095 7531605 7738175
2383 8136134 7625570 7840383
2384 8222944 7746321 7895648
2385 8238435 7857961 8017492
2386 8304269 8119156 8188506
2387 8376942 8236237 8233253
2388 8411455 8350227 8283060
2389 8509858 8468784 8373381
2390 8462213 8488345 8398669
2391 8493135 8492046 8408614
2392 8458083 8486602 8417320
2393 8447208 8399894 8307827
2394 8382583 8258592 8278578
2395 8371530 8157698 8173462
2396 8233302 7925276 8016491
2397 8244481 7833373 7956950
2398 8173512 7663304 7911460
2399 8085361 7559876 7852378
2400 8116431 7557510 7803250
2401 8120505 7551188 7820677
2402 8124906 7642627 7843838
2403 8170793 7722814 7921886
2404 8209652 7845618 8008272
2405 8235646 7931281 8049080
2406 8370757 8187069 8218352
2407 8375623 8302939 8285291
2408 8421234 8435204 8352844
2409 8469487 8562825 8434994
2410 8488594 8562842 8466280
2411 8481993 8534073 8394280
2412 8468752 8480080 8432325
2413 8440924 8390995 8320040
2414 8375272 8228233 8200263
2415 8387431 8109089 8119329
2416 8279566 7874234 7962176
2417 8246058 7758470 7906447
2418 8179603 7692731 7809669
2419 8112017 7552150 7771150
2420 8137270 7579796 7765500
2421 8151640 7552637 7780324
2422 8162250 7553804 7797963
2423 8203779 7643482 7838308
2424 8260081 7825655 7933719
2425 8240697 7924590 8038596
2426 8356373 8158266 8160459
2427 8386094 8265711 8204305
2428 8463830 8372737 8302591
2429 8493862 8529758 8381982
2430 8491105 8540254 8404397
2431 8544979 8554875 8391528
2432 8481715 8484902 8379624
2433 8437657 8415455 8303063
2434 8401783 8248726 8210736
2435 8378067 8189138 8170596
2436 8301403 7929692 7981534
2437 8264794 7831066 7969049
2438 8219165 7722348 7889893
2439 8129693 7571934 7774540
2440 8145938 7546689 7789201
2441 8110475 7635449 7828787
2442 8154754 7618202 7816638
2443 8160607 7719713 7849269
2444 8240663 7822068 7948168
2445 8269001 7936741 8004876
2446 8362240 8138671 8169321
2447 8385147 8286179 8254028
2448 8471157 8417426 8329835
2449 8529459 8567325 8408747
2450 8508903 8576328 8394511
2451 8510303 8572727 8427618
2452 8474012 8496396 8404834
2453 8478966 8441203 8351048
2454 8399500 8293804 8269287
2455 8402286 8190738 8181486
2456 8312135 7923256 8024431
2457 8209163 7817291 7940046
2458 8185057 7703897 7856099
2459 8091938 7517961 7747064
2460 8154672 7532359 7714348
2461 8146891 7546712 7769074
2462 8153551 7568177 7790650
2463 8223951 7690641 7836084
2464 8231198 7852437 7963830
2465 8265408 7915846 8017864
2466 8358011 8144913 8155933
2467 8397570 8231727 8199626
2468 8430283 8355506 8263466
2469 8508700 8481976 8340154
2470 8472373 8452900 8383799
2471 8497638 8450638 8339598
2472 8467127 8411523 8327360
2473 8442166 8294170 8213542
2474 8395890 8164811 8140939
2475 8403932 8071045 8077669
2476 8292059 7826880 7926630
2477 8215049 7732259 7858205
2478 8180441 7586341 7798622
2479 8149242 7484589 7715507
2480 8158697 7465321 7706851
2481 8140757 7454393 7713774
2482 8153313 7505768 7709074
2483 8180128 7588083 7794445
2484 8262729 7740447 7824591
2485 8275367 7823193 7903373
2486 8336137 8060101 8069731
2487 8396815 8164364 8119800
2488 8431832 8283921 8225706
2489 8513848 8416702 8261705
2490 8497734 8362600 8252180
2491 8462025 8341606 8259984
2492 8458920 8300952 8212408
2493 8447800 8275376 8162195
2494 8414969 8124260 8095110
2495 8360207 8036752 7973107
2496 8265823 7766088 7855521
2497 8250402 7693182 7820917
2498 8178962 7541749 7731976
2499 8092114 7419373 7666920
2500 8143077 7438467 7651203
2501 8140442 7399174 7652603
2502 8167638 7461930 7694407
2503 8159113 7533099 7765107
2504 8190959 7695119 7808124
2505 8216164 7767436 7870928
2506 8310155 8009292 8060313
2507 8344169 8109941 8090360
2508 8434075 8221202 8178125
2509 8467538 8416743 8255692
2510 8471196 8357783 8251521
2511 8463087 8396779 8236273
2512 8474556 8322142 8220423
2513 8468458 8244745 8143227
2514 8390822 8093088 8099993
2515 8371185 8003934 7973419
2516 8246079 7791394 7837376
2517 8222054 7636268 7804352
2518 8193993 7552054 7716720
2519 8121761 7413153 7650730
2520 8126830 7444853 7671348
2521 8151116 7449313 7742129
2522 8139127 7497421 7701503
2523 8176987 7587569 7804641
2524 8204359 7708755 7844663
2525 8243117 7812217 7947309
2526 8359554 8050189 8071195
2527 8391384 8170990 8131669
2528 8438831 8247734 8201560
2529 8467411 8371757 8224432
2530 8474248 8324916 8241496
2531 8498136 8319996 8222184
2532 8423574 8281300 8183990
2533 8453799 8186172 8126304
2534 8404244 8044463 8041724
2535 8386040 7981441 7993217
2536 8288896 7714562 7813674
2537 8222010 7633380 7765763
2538 8170012 7516536 7690527
2539 8118168 7354026 7652428
2540 8100206 7372975 7609740
2541 8152968 7386173 7601696
2542 8158062 7393571 7645696
2543 8134659 7512461 7693282
2544 8213554 7628014 7824096
2545 8228072 7733075 7895124
2546 8325670 7990963 8034854
2547 8401506 8094156 8066771
2548 8434891 8217135 8146044
2549 8492537 8354571 8231351
2550 8463542 8363077 8260017
2551 8501197 8333603 8203262
2552 8459779 8294416 8198068
2553 8400530 8197193 8167157
2554 8337206 8054475 8033560
2555 8375042 7936755 7987324
2556 8262617 7710792 7838755
2557 8195678 7653165 7778712
2558 8156554 7480639 7677574
2559 8060291 7342724 7618071
2560 8106631 7398199 7641114
2561 8088870 7406768 7642688
2562 8156646 7455974 7691252
2563 8149468 7574737 7747385
2564 8213061 7645512 7845804
2565 8275814 7768117 7868151
2566 8281722 7992989 8033959
2567 8380635 8087817 8084858
2568 8419567 8231885 8142366
2569 8479165 8332644 8210391
2570 8475922 8382359 8268500
2571 8468418 8375806 8290948
2572 8447927 8346819 8198655
2573 8436691 8232139 8186188
2574 8359611 8087795 8099100
2575 8324229 7969439 7987065
2576 8272898 7682037 7810189
2577 8198110 7596354 7750562
2578 8174113 7465107 7657856
2579 8080096 7311530 7565549
2580 8129134 7311872 7595716
2581 8105841 7375040 7616448
2582 8133052 7426412 7643226
2583 8145122 7515691 7724810
2584 8173394 7634220 7829997
2585 8253968 7764152 7881810
2586 8294923 8042508 8070207
2587 8388630 8092290 8100704
2588 8393532 8218853 8183997
2589 8454873 8330980 8257507
2590 8468434 8339490 8233618
2591 8476936 8311323 8198846
2592 8410139 8278423 8216687
2593 8430979 8248738 8185877
2594 8357163 8116684 8106702
2595 8330139 7971410 8000736
2596 8268515 7716442 7830437
2597 8180439 7597632 7777849
2598 8129108 7490829 7710164
2599 8077103 7410045 7682762
2600 8093630 7402822 7674542
2601 8108123 7412940 7693326
2602 8142885 7481640 7677217
2603 8135265 7500351 7769771
2604 8200852 7676058 7811600
2605 8220982 7748784 7905804
2606 8296291 7973822 8053095
2607 8341242 8108076 8077550
2608 8415048 8177188 8139464
2609 8475916 8251682 8186449
2610 8468217 8284464 8150187
2611 8474177 8295738 8138516
2612 8442002 8225161 8163205
2613 8395397 8140981 8052836
2614 8349236 7970261 7999061
2615 8327872 7916893 7938703
2616 8262420 7675735 7805316
2617 8173739 7579591 7742359
2618 8133117 7429045 7675149
2619 8103024 7328488 7623337
2620 8098127 7345021 7590136
2621 8066109 7369994 7635413
2622 8156486 7402713 7623894
2623 8135691 7478555 7723232
2624 8187425 7654496 7826585
2625 8215087 7735046 7888006
2626 8285151 7964684 8022558
2627 8368020 8058453 8102010
2628 8391238 8153066 8155037
2629 8449833 8326414 8221715
2630 8450499 8304083 8249588
2631 8432718 8317242 8258055
2632 8394556 8219875 8185302
2633 8381789 8150560 8144515
2634 8341504 8041160 8059048
2635 8296264 7909410 7982500
2636 8212552 7696652 7785020
2637 8187990 7583002 7785189
2638 8145489 7488386 7672868
2639 8059690 7334890 7630393
2640 8082951 7372489 7605839
2641 8080801 7360611 7665280
2642 8112341 7411175 7651054
2643 8133564 7506454 7730089
2644 8187712 7615527 7834313
2645 8224799 7721896 7875659
2646 8302194 7952672 8025200
2647 8338172 8081377 8098872
2648 8394318 8232739 8211119
2649 8454390 8344577 8237463
2650 8435230 8353585 8314520
2651 8427146 8321817 8223770
2652 8400971 8279235 8199168
2653 8399910 8204493 8188526
2654 8343858 8086029 8063779
2655 8341387 7951061 8017641
2656 8243321 7697137 7843425
2657 8194030 7576478 7786199
2658 8139090 7505882 7732641
2659 8072167 7396624 7645412
2660 8084762 7363600 7624668
2661 8099721 7324868 7608320
2662 8116562 7323692 7632942
2663 8130060 7441455 7656231
2664 8170450 7545878 7740987
2665 8205240 7672367 7781522
2666 8301948 7924025 7990349
2667 8349049 8021381 8032690
2668 8389704 8142876 8122843
2669 8442478 8263311 8178061
2670 8445187 8289349 8190760
2671 8464219 8248051 8185998
2672 8420499 8236301 8159643
2673 8421955 8169717 8139977
2674 8343445 8011642 8038094
2675 8325439 7918794 7953696
2676 8227540 7702822 7812344
2677 8177322 7622810 7830155
2678 8138706 7531488 7744493
2679 8085295 7429119 7688093
2680 8092970 7388644 7682077
2681 8102659 7442257 7698721
2682 8119747 7504722 7772409
2683 8126341 7554237 7767672
2684 8215787 7696322 7834742
2685 8230275 7787666 7916131
2686 8322329 7999115 8084528
2687 8360418 8156671 8124522
2688 8369845 8234922 8192383
2689 8454926 8334346 8251057
2690 8458801 8349388 8277165
2691 8448167 8345102 8239500
2692 8425377 8338347 8227743
2693 8399909 8170346 8153296
2694 8371391 8046086 8044706
2695 8343658 7948554 7936287
2696 8257956 7648748 7774324
2697 8210156 7547097 7664535
2698 8149247 7347707 7551660
2699 8087793 7250179 7508631
2700 8106922 7255011 7525981
2701 8124044 7303204 7533433
2702 8137074 7334570 7569618
2703 8177949 7439610 7622003
2704 8219188 7563594 7693433
2705 8269488 7712136 7825439
2706 8375395 7990593 7957496
2707 8414105 8101355 8041370
2708 8474663 8288678 8140567
2709 8574032 8433697 8212020
2710 8527170 8469222 8277601
2711 8513439 8407726 8258781
2712 8508523 8392582 8243013
2713 8486326 8271205 8137288
2714 8423739 8163760 8095293
2715 8409548 8064331 8012405
2716 8355517 7849520 7877922
2717 8280248 7752916 7827155
2718 8232159 7600911 7789497
2719 8157310 7507569 7673300
2720 8206392 7492165 7668065
2721 8213362 7490819 7657331
2722 8212945 7560866 7688706
2723 8263941 7684228 7797429
2724 8290751 7791923 7884581
2725 8345207 7934619 7973448
2726 8430234 8179660 8087418
2727 8479959 8251625 8103940
2728 8521242 8391294 8221885
2729 8577305 8525579 8300671
2730 8615234 8555672 8302881
2731 8600420 8535596 8249747
2732 8635061 8512339 8261868
2733 8555890 8446081 8195388
2734 8551110 8321502 8147551
2735 8528749 8209652 8056077
2736 8452324 8001337 7906224
2737 8392972 7902784 7853106
2738 8354593 7744370 7770237
2739 8292678 7648997 7731269
2740 8310833 7720223 7746041
2741 8329072 7712884 7760527
2742 8339473 7801626 7822698
2743 8408097 7836031 7874286
2744 8445945 7971594 7924444
2745 8447368 8075292 7996535
2746 8543458 8352785 8138343
2747 8528575 8382675 8219633
2748 8580604 8481074 8283678
2749 8653675 8618846 8358492
2750 8612333 8622892 8376720
2751 8590076 8585462 8364723
2752 8578157 8545006 8361981
2753 8548607 8475012 8314208
2754 8483131 8356563 8231687
2755 8456666 8197926 8125936
2756 8383105 7965371 7954748
2757 8324857 7868045 7910181
2758 8262976 7721419 7759521
2759 8268300 7610070 7755864
2760 8219007 7553805 7710993
2761 8223627 7555122 7695782
2762 8243450 7590432 7691598
2763 8273351 7650898 7719500
2764 8346802 7781170 7799166
2765 8356691 7827736 7818974
2766 8422995 8050527 7987858
2767 8475048 8116156 8011222
2768 8510932 8197222 8108137
2769 8548586 8363349 8181489
2770 8525976 8371797 8226869
2771 8483521 8408933 8247111
2772 8472709 8337424 8216584
2773 8452105 8213106 8173677
2774 8350340 8129113 8110500
2775 8325359 7995210 8045039
2776 8192627 7765632 7872157
2777 8203616 7615345 7812854
2778 8110921 7471376 7718944
2779 8040186 7270894 7641808
2780 8071469 7266011 7529989
2781 8058306 7264242 7569375
2782 8104518 7307565 7598437
2783 8100768 7366063 7628409
2784 8145595 7509172 7748214
2785 8193140 7618757 7786198
2786 8266696 7850150 7999418
2787 8300239 7960530 8008765
2788 8344518 8126154 8096139
2789 8409795 8220975 8167266
2790 8404692 8202382 8166872
2791 8404172 8183752 8155887
2792 8386330 8175037 8128010
2793 8327318 8073082 8086510
2794 8320606 7915333 7941576
2795 8287479 7804647 7860505
2796 8185321 7544165 7689440
2797 8146043 7412621 7644776
2798 8101961 7285587 7561737
2799 8027557 7179890 7472826
2800 8033755 7162459 7499588
2801 8048624 7152613 7470806
2802 8065596 7244382 7528417
2803 8062117 7305998 7610542
2804 8137264 7473051 7663891
2805 8144916 7554395 7781693
2806 8253564 7829082 7883879
2807 8304721 7876715 7910439
2808 8319364 7982493 7994039
2809 8385208 8080282 8078863
2810 8405139 8176875 8108949
2811 8428010 8144895 8113207
2812 8374275 8123840 8119152
2813 8377214 8047191 8051437
2814 8310447 7906009 7953174
2815 8286790 7804369 7877175
2816 8198397 7485203 7674827
2817 8132162 7398528 7554426
2818 8075220 7235141 7526404
2819 8063308 7098001 7431344
2820 8018726 7059218 7417091
2821 8023320 7086355 7391243
2822 8062585 7127267 7420495
2823 8103770 7214896 7522579
2824 8148106 7366643 7572109
2825 8165775 7502130 7679866
2826 8216252 7748478 7851404
2827 8310215 7870569 7950084
2828 8341368 8009817 8004771
2829 8401344 8168057 8137036
2830 8421965 8173373 8155084
2831 8392928 8168727 8132220
2832 8363951 8120348 8097690
2833 8333759 8019167 8059842
2834 8283788 7896174 7969753
2835 8255053 7796847 7913688
2836 8220025 7569868 7738072
2837 8157357 7486654 7672355
2838 8088278 7298964 7598595
2839 8039322 7194271 7511568
2840 8044673 7173674 7468875
2841 8068053 7190653 7505323
2842 8100200 7221306 7513861
2843 8132538 7269895 7496508
2844 8177968 7362814 7518887
2845 8249899 7458246 7561884
2846 8355931 7594804 7595795
2847 8454252 7624614 7518189
2848 8520619 7699489 7521351
2849 8558238 7777206 7507450
2850 8579932 7666919 7416079
2851 8631659 7653296 7393149
2852 8603297 7519955 7313934
2853 8577548 7431728 7205359
2854 8525347 7287597 7082165
2855 8546527 7120424 6937815
2856 8473973 6833919 6685285
2857 8493384 6723830 6601687
2858 8499294 6646775 6534772
2859 8529916 6650559 6514803
2860 8587930 6787145 6534077
2861 8672908 6952331 6589161
2862 8938912 7222166 6623939
2863 9106608 7519172 6786761
2864 9311751 7953107 6975814
2865 9519475 8328465 7154957
2866 9744276 8930324 7537830
2867 9954041 9427894 7820760
2868 10158649 9929318 8182880
2869 10353406 10380562 8383020
2870 10444323 10677247 8651241
2871 10459510 10949326 8869869
2872 10449853 11150825 9066857
2873 10420163 11395362 9391507
2874 10082676 11654810 9959064
2875 9751551 11904800 10594398
2876 9431931 12047989 11042815
2877 9219769 12230659 11430774
2878 9006815 12318312 11738354
2879 8950124 12492175 11994324
2880 8928052 12734118 12219102
2881 8902287 12946625 12451659
2882 8982658 12965998 12388901
2883 8958979 13064734 12474047
2884 8992070 13255992 12716414
2885 9001430 13373902 12764499
2886 9098933 13359176 12636260
2887 9011761 12988312 12377925
2888 8798856 12663163 12272449
2889 8673517 12327417 11988047
2890 8501654 11638698 11465819
2891 8383292 10820710 10849545
2892 8088792 10120306 10396892
2893 7895472 9574563 10101074
2894 7714377 8953119 9569589
2895 7747710 8473108 9110081
2896 7681660 7997307 8659944
2897 7681007 7761500 8453658
2898 7662437 7402665 8131223
2899 7679780 7226730 7892887
2900 7750287 7143735 7820295
2901 7701974 7054172 7678360
2902 7790133 6990275 7615316
2903 7745463 6964480 7582698
2904 7830234 7021728 7563615
2905 7875160 7135573 7566272
2906 8007202 7266400 7647096
2907 8121098 7381109 7648773
2908 8194189 7522548 7697598
2909 8278914 7620546 7727832
2910 8305392 7703432 7733741
2911 8366420 7750001 7784880
2912 8327660 7748241 7755336
2913 8357621 7735138 7738194
2914 8311239 7678448 7707972
2915 8293761 7580895 7641173
2916 8226717 7382969 7531798
2917 8123419 7261550 7477929
2918 8078138 7133365 7387493
2919 8024720 7022921 7322949
2920 8053466 7002944 7354634
2921 8050420 7016697 7348809
2922 8052272 7095440 7417141
2923 8051753 7157844 7450270
2924 8074404 7336269 7530965
2925 8137453 7421778 7636082
2926 8245368 7674410 7800448
2927 8269457 7763944 7853186
2928 8296376 7905974 7945999
2929 8390224 8026782 8014676
2930 8370383 8066371 8058739
2931 8340784 8037565 8072290
2932 8313026 7989308 8004291
2933 8304400 7930987 7969196
2934 8293081 7764259 7860142
2935 8254352 7638916 7724399
2936 8190900 7380852 7608785
2937 8116485 7285899 7513120
2938 8064189 7091769 7427061
2939 8007023 6992306 7353941
2940 8015632 6967070 7322198
2941 8062650 6995595 7327986
2942 8058382 7081627 7357844
2943 8090330 7110501 7431670
2944 8143775 7294666 7489209
2945 8148485 7351001 7618478
2946 8241584 7646180 7766528
2947 8284544 7734887 7804501
2948 8381260 7907197 7907710
2949 8394335 8038124 7972200
2950 8425908 8055927 8015872
2951 8416110 8042715 7968761
2952 8383901 7955783 7914668
2953 8393047 7912431 7886957
2954 8348192 7756255 7797838
2955 8314722 7661050 7713135
2956 8200970 7440915 7565013
2957 8186734 7298435 7473457
2958 8121640 7219716 7446525
2959 8070888 7061240 7363943
2960 8071836 7087838 7348107
2961 8085709 7086171 7385205
2962 8146918 7217421 7411927
2963 8155588 7239465 7505085
2964 8201857 7392247 7577754
2965 8235614 7517137 7652988
2966 8293887 7755739 7823741
2967 8344865 7849429 7875570
2968 8394926 7971056 7939236
2969 8459245 8106913 7992419
2970 8456890 8142413 8073520
2971 8433956 8107757 8021261
2972 8440059 8084558 8017975
2973 8410057 7982702 7940271
2974 8376623 7881142 7867595
2975 8349672 7814879 7834831
2976 8246716 7619471 7669223
2977 8220339 7472884 7660989
2978 8162596 7390779 7574202
2979 8118863 7266630 7529660
2980 8090955 7286442 7491596
2981 8094432 7298770 7544485
2982 8142466 7323703 7571049
2983 8158584 7422724 7623522
2984 8229812 7512749 7691543
2985 8258069 7635435 7705386
2986 8355494 7848924 7854762
2987 8382722 7944946 7913155
2988 8418446 8078851 8009692
2989 8459675 8180601 8032200
2990 8484764 8181752 8059085
2991 8490989 8166799 8058621
2992 8452272 8107006 8023890
2993 8442858 8064119 7984302
2994 8404670 7922425 7836630
2995 8405118 7843551 7796271
2996 8272374 7582579 7682431
2997 8242290 7484529 7550388
2998 8201588 7348210 7504121
2999 8161406 7230619 7420563
3000 8194432 7200084 7415115
3001 8157231 7231477 7401511
3002 8203958 7295215 7426521
3003 8207217 7379877 7514620
3004 8293158 7507853 7605466
3005 8327632 7672818 7674740
3006 8415312 7903406 7880415
3007 8416944 8024876 7920421
3008 8488806 8123120 7999274
3009 8554949 8283064 8087068
3010 8540519 8319044 8121260
3011 8534416 8261020 8083841
3012 8527572 8204205 8049917
3013 8515880 8163122 8008128
3014 8485788 8065517 7954564
3015 8441560 7974170 7893630
3016 8358953 7714958 7753222
3017 8327399 7654009 7726888
3018 8295201 7518311 7618468
3019 8232052 7437481 7580730
3020 8253597 7423753 7499286
3021 8245390 7437549 7597704
3022 8276662 7481026 7571304
3023 8290817 7568472 7638531
3024 8318309 7671038 7679916
3025 8382314 7798542 7789113
3026 8468235 8033862 7914088
3027 8508403 8117324 7986909
3028 8566252 8278851 8077399
3029 8656112 8373182 8141595
3030 8615420 8433736 8163057
3031 8636938 8387072 8141853
3032 8606554 8354063 8120459
3033 8594977 8323642 8073614
3034 8548127 8179402 7983655
3035 8509993 8077113 7880845
3036 8462052 7831041 7782616
3037 8421847 7780188 7711703
3038 8364283 7632923 7625917
3039 8342270 7544435 7569492
3040 8348887 7528238 7598972
3041 8345722 7577605 7605072
3042 8374211 7647578 7605226
3043 8402450 7716228 7708995
3044 8438716 7884813 7747380
3045 8529905 7966981 7831429
3046 8616434 8231689 7979495
3047 8626237 8321489 8079907
3048 8712211 8462475 8107481
3049 8745182 8608488 8192146
3050 8780028 8607396 8247754
3051 8765058 8613503 8211473
3052 8755125 8576906 8194949
3053 8702584 8523337 8114129
3054 8701984 8367570 8053028
3055 8668619 8308583 7949714
3056 8597969 8083659 7841431
3057 8580728 7963106 7742998
3058 8525350 7850172 7665872
3059 8507829 7792495 7624869
3060 8529741 7784550 7610434
3061 8542941 7805013 7611387
3062 8587490 7882796 7671249
3063 8575070 7933577 7693816
3064 8678934 8055285 7718933
3065 8758798 8155146 7806130
3066 8827001 8430615 7967129
3067 8852691 8521093 8024783
3068 8930186 8722617 8147603
3069 8985590 8870548 8194422
3070 9024127 8875033 8262774
3071 8990781 8899576 8238779
3072 9038838 8912177 8269184
3073 9015752 8865760 8187208
3074 8961903 8725797 8146109
3075 8948566 8633406 8002573
3076 8871747 8393630 7884299
3077 8878777 8303977 7774234
3078 8847835 8233444 7711096
3079 8815921 8077929 7645109
3080 8790609 8114527 7607490
3081 8837834 8089072 7664172
3082 8901226 8188171 7625316
3083 8929322 8275505 7721515
3084 8996094 8379092 7759797
3085 9028606 8533799 7857406
3086 9137256 8846048 8032434
3087 9172068 8960577 8100204
3088 9255021 9094853 8231884
3089 9311355 9253842 8279154
3090 9295864 9283827 8317772
3091 9360114 9252827 8259903
3092 9339124 9207893 8268674
3093 9343782 9171154 8229151
3094 9253003 9057566 8196162
3095 9290479 8993496 8097729
3096 9171685 8783393 7886910
3097 9140593 8668745 7878078
3098 9117336 8578647 7820272
3099 9092104 8407332 7684005
3100 9110761 8411354 7645088
3101 9136402 8481257 7686538
3102 9167059 8521067 7713154
3103 9165851 8613079 7778471
3104 9240623 8693595 7853831
3105 9260975 8824401 7909846
3106 9349167 9027664 8061455
3107 9390814 9177066 8141663
3108 9443816 9297034 8221643
3109 9476374 9418262 8301676
3110 9463762 9451732 8344502
3111 9495260 9424579 8294137
3112 9463230 9389738 8317706
3113 9440438 9280106 8222692
3114 9374562 9223415 8213430
3115 9352015 9074227 8109512
3116 9265843 8858102 7966972
3117 9186315 8686624 7883428
3118 9139491 8525385 7745615
3119 9091253 8425618 7672979
3120 9090728 8356435 7600459
3121 9079941 8371810 7638810
3122 9129252 8388592 7696821
3123 9142357 8516469 7729300
3124 9161650 8617365 7806631
3125 9170947 8735639 7909704
3126 9270231 8945832 8077019
3127 9286643 9041094 8105470
3128 9318726 9166861 8221153
3129 9356684 9252217 8295597
3130 9327121 9283991 8337572
3131 9316260 9271677 8341405
3132 9282485 9262543 8376718
3133 9270878 9149942 8315520
3134 9150096 9023047 8228692
3135 9098648 8942047 8179152
3136 9051482 8721699 8075922
3137 8941451 8583552 8001087
3138 8880619 8390158 7887832
3139 8854529 8274005 7801287
3140 8823951 8253522 7788205
3141 8786173 8273019 7810520
3142 8802702 8299356 7863879
3143 8826189 8387178 7914525
3144 8834229 8513279 8059251
3145 8848042 8613816 8113730
3146 8900986 8810131 8286070
3147 8970525 8938366 8365550
3148 9015644 9096492 8436985
3149 9026174 9147280 8528809
3150 9000777 9166324 8517089
3151 8948603 9101226 8517370
3152 8951412 9085496 8498748
3153 8909123 8959838 8428288
3154 8807980 8798154 8363490
3155 8766332 8652406 8268926
3156 8707510 8443923 8108380
3157 8632282 8311075 8035204
3158 8519988 8173556 8018798
3159 8501344 8058145 7920720
3160 8475918 7982818 7865649
3161 8481269 8029040 7894994
3162 8487252 8120571 7973481
3163 8494306 8151675 8018919
3164 8544486 8252257 8061218
3165 8534008 8302939 8161643
3166 8640773 8539520 8294443
3167 8658461 8661277 8387026
3168 8716432 8790078 8430004
3169 8727011 8840337 8497760
3170 8694137 8839545 8491937
3171 8693497 8787092 8467914
3172 8593652 8717527 8433951
3173 8597829 8618289 8381088
3174 8534942 8481772 8289112
3175 8561102 8393608 8170626
3176 8430481 8106886 8084522
3177 8350069 8012826 7995783
3178 8316506 7843205 7910840
3179 8280269 7723844 7794799
3180 8283037 7688227 7823594
3181 8253503 7724041 7845804
3182 8265763 7779113 7844333
3183 8285444 7831149 7914803
3184 8335393 7970382 7986639
3185 8380730 8073549 8085405
3186 8461748 8314856 8209243
3187 8486182 8412794 8289182
3188 8534045 8510940 8377184
3189 8578503 8643578 8420450
3190 8576029 8653869 8445480
3191 8578702 8647066 8456511
3192 8528101 8575521 8450216
3193 8492662 8491392 8337953
3194 8464744 8355643 8257772
3195 8435178 8213118 8176408
3196 8323637 7980035 8040638
3197 8292569 7908651 7988082
3198 8225118 7750167 7899258
3199 8172799 7603407 7791245
3200 8156956 7556169 7747135
3201 8201650 7578445 7792803
3202 8216971 7641497 7804843
3203 8221608 7683241 7869561
3204 8246430 7819352 7921191
3205 8294638 7935459 8030620
3206 8340904 8153416 8129232
3207 8405853 8241317 8233290
3208 8473371 8368793 8285394
3209 8505295 8499746 8340599
3210 8554322 8512690 8365931
3211 8497185 8486588 8366846
3212 8476185 8411318 8359755
3213 8463882 8360868 8277166
3214 8383490 8236204 8217263
3215 8373820 8093121 8117060
3216 8232257 7875414 7986031
3217 8229570 7775502 7920997
3218 8194661 7655722 7793535
3219 8114578 7510602 7776102
3220 8159536 7504659 7701767
3221 8149467 7487337 7750271
3222 8200793 7524580 7713696
3223 8217304 7632909 7805985
3224 8236460 7780173 7928104
3225 8238184 7953154 8024500
3226 8359782 8198971 8197886
3227 8376370 8331525 8264890
3228 8440595 8453327 8358107
3229 8486604 8545180 8394548
3230 8482732 8555296 8432828
3231 8468366 8531770 8413279
3232 8453076 8482005 8410827
3233 8448627 8379704 8306999
3234 8409145 8247949 8227961
3235 8393652 8119588 8144536
3236 8291895 7871397 7952130
3237 8252416 7742658 7879159
3238 8149870 7617403 7822036
3239 8152030 7525366 7749753
3240 8157995 7535237 7766466
3241 8151313 7579552 7809468
3242 8208163 7605025 7794223
3243 8161946 7697334 7888294
3244 8230140 7853611 7975259
3245 8286065 7946718 8053475
3246 8321858 8188618 8207117
3247 8406145 8297659 8243318
3248 8457641 8444976 8350317
3249 8486670 8525626 8405084
3250 8491276 8564525 8429887
3251 8509362 8519637 8392108
3252 8472883 8473299 8410708
3253 8454208 8391403 8312599
3254 8396239 8259702 8215094
3255 8377799 8139874 8122036
3256 8275007 7900610 7982528
3257 8240659 7795495 7918480
3258 8186150 7708490 7885987
3259 8142400 7615591 7794975
3260 8158927 7566253 7784614
3261 8168410 7627886 7858556
3262 8206638 7689952 7855868
3263 8187799 7797646 7969650
3264 8310945 7884935 8043302
3265 8285202 8029555 8098671
3266 8391080 8209399 8200924
3267 8404633 8315618 8305762
3268 8446798 8487597 8362137
3269 8516588 8580820 8463844
3270 8503798 8584151 8436761
3271 8505708 8576570 8459649
3272 8468272 8589523 8422383
3273 8442930 8453152 8408521
3274 8395806 8349567 8303480
3275 8386651 8232475 8208300
3276 8309082 7997402 8049772
3277 8254372 7924346 7959715
3278 8217086 7776323 7893982
3279 8145856 7659279 7835212
3280 8160363 7594428 7819701
3281 8165084 7669814 7857212
3282 8215594 7706048 7885624
3283 8230185 7792330 7951367
3284 8267871 7981026 8051394
3285 8330670 8065760 8106241
3286 8374024 8294332 8266020
3287 8428453 8410963 8361504
3288 8500412 8544016 8452274
3289 8511079 8653088 8509702
3290 8542539 8705479 8540365
3291 8540945 8673146 8510805
3292 8481185 8617246 8511852
3293 8471443 8548421 8425690
3294 8443328 8443577 8377466
3295 8408538 8320211 8319602
3296 8326033 8068555 8121609
3297 8279547 7964686 8071573
3298 8224642 7813312 7972535
3299 8203793 7732681 7934757
3300 8168750 7721459 7958739
3301 8179727 7773223 7948444
3302 8225923 7829540 7953614
3303 8254575 7878081 8014303
3304 8297779 8009045 8078955
3305 8319756 8136975 8187264
3306 8385806 8377844 8295474
3307 8439393 8440314 8415278
3308 8512788 8595898 8432497
3309 8555346 8660845 8466893
3310 8540838 8679625 8511503
3311 8531684 8621890 8459816
3312 8495012 8535879 8463821
3313 8471256 8459778 8290289
3314 8436487 8287092 8260357
3315 8411137 8161986 8138314
3316 8321363 7931498 8015168
3317 8236796 7837353 7925165
3318 8236380 7666679 7826205
3319 8143788 7575543 7761309
3320 8147385 7569572 7744029
3321 8185482 7578283 7770088
3322 8201175 7613759 7784463
3323 8237078 7713727 7869108
3324 8278333 7881160 7956417
3325 8288186 7989269 8059308
3326 8364689 8274937 8181829
3327 8402044 8345701 8318023
3328 8456124 8507371 8408527
3329 8509105 8596513 8451574
3330 8502972 8620383 8502960
3331 8512647 8626123 8482542
3332 8487065 8580631 8492378
3333 8446447 8524275 8394073
3334 8377855 8369789 8362776
3335 8398738 8259127 8266697
3336 8279279 8024856 8138878
3337 8250566 7908232 8021952
3338 8183160 7753669 7950654
3339 8150414 7625230 7859201
3340 8142418 7574099 7783843
3341 8159031 7587607 7827835
3342 8184879 7624725 7804803
3343 8202496 7715250 7849053
3344 8269851 7818138 7924473
3345 8251201 7933070 8012834
3346 8378492 8113449 8122079
3347 8396095 8254947 8200637
3348 8468916 8420832 8359809
3349 8537230 8538528 8388393
3350 8491990 8565397 8462359
3351 8520209 8491332 8366491
3352 8465614 8419467 8357303
3353 8453271 8334608 8256610
3354 8401306 8215636 8186605
3355 8372212 8057375 8048388
3356 8304502 7795621 7900868
3357 8266388 7737666 7865419
3358 8179956 7571824 7775038
3359 8135451 7510767 7738756
3360 8134783 7496114 7706991
3361 8185682 7539333 7787234
3362 8155012 7623062 7826153
3363 8187196 7721962 7910343
3364 8234652 7819933 7970513
3365 8237293 7974936 8079267
3366 8348216 8160215 8221523
3367 8393476 8275720 8240949
3368 8424075 8409440 8322566
3369 8504780 8513573 8363697
3370 8489229 8487794 8355641
3371 8476482 8432686 8325794
3372 8425409 8371724 8271147
3373 8478272 8285573 8191522
3374 8410100 8184273 8147488
3375 8384011 8075892 8065946
3376 8271330 7851013 7919623
3377 8224711 7713087 7877237
3378 8177339 7575830 7764658
3379 8145537 7489245 7719574
3380 8116562 7467328 7688483
3381 8169127 7481892 7721526
3382 8181572 7581446 7752762
3383 8161480 7665749 7812789
3384 8251431 7766821 7914456
3385 8277926 7892041 7962716
3386 8347905 8086991 8054440
3387 8392416 8151382 8120346
3388 8444793 8294811 8205854
3389 8490417 8408837 8277637
3390 8486921 8486024 8307326
3391 8472221 8409639 8307424
3392 8449065 8366793 8285538
3393 8467981 8259223 8196663
3394 8379107 8155198 8121488
3395 8348628 8035062 8055869
3396 8265905 7786172 7892115
3397 8235392 7677699 7823627
3398 8161892 7559019 7745890
3399 8153351 7506521 7691693
3400 8133231 7451712 7688830
3401 8133961 7468058 7677028
3402 8195439 7532868 7736876
3403 8192226 7610313 7795950
3404 8249382 7716790 7886173
3405 8272827 7848878 7940527
3406 8353766 8131790 8103609
3407 8403681 8219725 8184138
3408 8422815 8366927 8295785
3409 8460518 8413511 8312793
3410 8462693 8483835 8297968
3411 8474176 8407277 8299066
3412 8443768 8344201 8270264
3413 8428776 8257840 8197214
3414 8381345 8177180 8115861
3415 8342837 8083082 8090724
3416 8256615 7817130 7916185
3417 8239515 7759855 7855154
3418 8171315 7572132 7809081
3419 8092753 7517884 7773742
3420 8115941 7464188 7747182
3421 8160383 7559376 7769497
3422 8166111 7568487 7821417
3423 8138652 7700262 7902354
3424 8230539 7812295 7979703
3425 8265846 7950274 8067854
3426 8341564 8189276 8201799
3427 8401444 8275016 8269815
3428 8440838 8414244 8350537
3429 8504929 8533663 8402901
3430 8481647 8576609 8428760
3431 8469379 8469865 8355704
3432 8442841 8378350 8351989
3433 8439130 8312343 8233948
3434 8362226 8141578 8137734
3435 8367353 8059997 8044863
3436 8275282 7799075 7892826
3437 8230678 7666936 7810273
3438 8182197 7544103 7746059
3439 8129998 7481707 7699941
3440 8142177 7467039 7690650
3441 8151435 7505940 7760249
3442 8178571 7575198 7786766
3443 8194064 7612825 7830572
3444 8228789 7779454 7924230
3445 8261644 7900322 8012912
3446 8366094 8123931 8125136
3447 8377037 8238041 8229880
3448 8458070 8414797 8296844
3449 8471988 8460148 8372137
3450 8505633 8499778 8342368
3451 8475578 8463249 8340011
3452 8452854 8330382 8292584
3453 8440580 8306926 8253441
3454 8359733 8182371 8146348
3455 8358476 8073997 8060168
3456 8261810 7811707 7940235
3457 8220600 7715043 7867218
3458 8167111 7583176 7806885
3459 8120957 7514358 7736016
3460 8103305 7521637 7739193
3461 8155965 7582275 7801907
3462 8166949 7620261 7817777
3463 8197488 7714685 7887270
3464 8230926 7885237 7998526
3465 8236126 7982076 8065011
3466 8354682 8203144 8205697
3467 8377217 8296362 8283510
3468 8450965 8413635 8351129
3469 8509910 8521143 8370675
3470 8504719 8487333 8406385
3471 8466699 8451494 8330660
3472 8422702 8391712 8341169
3473 8447605 8331437 8246874
3474 8381637 8204593 8151064
3475 8359064 8044071 8055624
3476 8246192 7832349 7923404
3477 8213247 7723073 7881884
3478 8155309 7569983 7754641
3479 8144636 7466897 7718064
3480 8123881 7467299 7691421
3481 8134825 7522989 7735520
3482 8139280 7577308 7760450
3483 8160130 7610576 7796728
3484 8232352 7730769 7907730
3485 8257231 7907540 8014038
3486 8341642 8099296 8107721
3487 8385777 8227439 8162158
3488 8423108 8370648 8300829
3489 8466179 8428753 8356008
3490 8501210 8466289 8339454
3491 8457928 8443990 8326944
3492 8426907 8348777 8321922
3493 8422944 8281358 8259583
3494 8353553 8174187 8140403
3495 8340317 8003298 8079829
3496 8246546 7833703 7949626
3497 8247615 7738948 7911982
3498 8161668 7624769 7820772
3499 8124581 7558554 7805506
3500 8138802 7521871 7781876
3501 8107213 7555491 7822442
3502 8167362 7653538 7869123
3503 8154094 7731121 7939942
3504 8234829 7888822 8009576
3505 8233812 7996233 8113518
3506 8323558 8195123 8222959
3507 8364394 8266898 8299824
3508 8423045 8386844 8340391
3509 8504411 8445908 8395075
3510 8472230 8523067 8384352
3511 8479953 8438693 8378406
3512 8394146 8403052 8342395
3513 8425219 8288231 8235466
3514 8362046 8189105 8182509
3515 8327268 8034123 8074503
3516 8225984 7784419 7918565
3517 8223073 7706858 7904384
3518 8185858 7596505 7819962
3519 8119536 7574563 7758880
3520 8121958 7510487 7773911
3521 8094286 7567510 7794986
3522 8161624 7622350 7855197
3523 8144014 7753504 7923482
3524 8225831 7851689 8030199
3525 8225669 7964013 8102396
3526 8327528 8185826 8179445
3527 8393645 8265636 8235675
3528 8405986 8370402 8316913
3529 8453399 8465911 8398852
3530 8431657 8498542 8420981
3531 8474857 8466282 8412974
3532 8430403 8403153 8339333
3533 8393314 8369951 8274258
3534 8365868 8197700 8234618
3535 8324503 8072740 8124634
3536 8252911 7830456 7996306
3537 8209773 7750604 7910707
3538 8159628 7629114 7845443
3539 8079646 7568795 7768626
3540 8144752 7527725 7779482
3541 8153594 7555908 7768068
3542 8142959 7599784 7801573
3543 8141238 7660963 7897739
3544 8197845 7857502 7969808
3545 8247573 7957145 8102619
3546 8344164 8165090 8212559
3547 8382284 8263706 8283963
3548 8410232 8371121 8362428
3549 8457914 8488251 8379662
3550 8446401 8453156 8386771
3551 8450585 8390204 8347906
3552 8424923 8366702 8299540
3553 8378120 8263083 8223740
3554 8304660 8146016 8227912
3555 8356135 8051853 8070515
3556 8230177 7819447 7937531
3557 8153337 7681400 7875794
3558 8145027 7632069 7834123
3559 8084114 7541304 7810179
3560 8082944 7504081 7787443
3561 8085851 7559390 7838736
3562 8118788 7650326 7866814
3563 8165584 7730408 7973522
3564 8202114 7888721 8001821
3565 8253119 8019462 8162315
3566 8319047 8245694 8294608
3567 8345337 8367290 8364899
3568 8427801 8426527 8426120
3569 8440771 8509432 8450575
3570 8448171 8561168 8479414
3571 8435499 8494371 8428255
3572 8442868 8430439 8424472
3573 8387123 8374545 8388531
3574 8353418 8247976 8300498
3575 8346312 8142173 8197279
3576 8243934 7948245 8091680
3577 8182858 7795647 7975574
3578 8112928 7655614 7907828
3579 8088023 7589785 7853532
3580 8048872 7577386 7868068
3581 8046360 7615129 7908121
3582 8137203 7684400 7894896
3583 8132799 7746269 7980158
3584 8210037 7907814 8015903
3585 8182021 8003578 8162436
3586 8310022 8242593 8291415
3587 8339953 8368882 8356981
3588 8429037 8479635 8449476
3589 8422857 8554703 8472417
3590 8436771 8576230 8503070
3591 8436888 8533222 8458655
3592 8378055 8450558 8444448
3593 8386564 8360474 8356679
3594 8306133 8217722 8273803
3595 8350523 8112020 8171502
3596 8216813 7898858 8020694
3597 8216586 7814621 7967937
3598 8138528 7713354 7903879
3599 8065223 7580276 7861019
3600 8071092 7594061 7855397
3601 8079902 7621222 7948212
3602 8099523 7695100 7947939
3603 8162257 7795367 8020650
3604 8193513 7925687 8107084
3605 8250601 8081173 8206583
3606 8332140 8271659 8324938
3607 8326035 8390480 8431413
3608 8402094 8519601 8499564
3609 8418917 8592977 8544527
3610 8443911 8613707 8531717
3611 8438566 8564126 8510338
3612 8363640 8472178 8451411
3613 8368342 8394843 8374607
3614 8333313 8244527 8300835
3615 8315447 8124872 8193628
3616 8222415 7904589 8065418
3617 8172023 7812555 8048264
3618 8110278 7693676 7938865
3619 8052662 7578960 7940110
3620 8069835 7599882 7885319
3621 8083733 7616553 7892088
3622 8129558 7672941 7892562
3623 8151313 7785476 8009169
3624 8161876 7914612 8104835
3625 8168332 8020558 8191558
3626 8261037 8269483 8341578
3627 8330312 8347759 8373750
3628 8373270 8454194 8480706
3629 8404947 8557956 8487984
3630 8434409 8613943 8528717
3631 8399309 8544297 8491527
3632 8351642 8522940 8512909
3633 8371752 8439020 8441360
3634 8320662 8316839 8324389
3635 8289377 8200247 8247571
3636 8240200 7966990 8117416
3637 8175331 7862348 8044115
3638 8148435 7740530 7941568
3639 8069612 7597435 7898083
3640 8076724 7562796 7854930
3641 8092822 7676375 7916848
3642 8114489 7741599 7934057
3643 8161199 7797313 7983823
3644 8201249 7872408 8037104
3645 8246142 8026032 8112086
3646 8346761 8251985 8286126
3647 8410803 8399798 8354461
3648 8463335 8529934 8467787
3649 8484369 8629079 8497561
3650 8490390 8722077 8596822
3651 8518809 8693625 8578363
3652 8490565 8700385 8598136
3653 8444504 8581251 8513047
3654 8407232 8485436 8428864
3655 8377326 8368204 8348998
3656 8277847 8177060 8261504
3657 8263711 8072039 8221181
3658 8165054 7907781 8122088
3659 8120735 7871639 8097226
3660 8142497 7855331 8079549
3661 8147697 7890812 8097458
3662 8177153 7924487 8106868
3663 8183857 8055552 8175502
3664 8253051 8175289 8269868
3665 8311589 8283099 8370539
3666 8382566 8474833 8417517
3667 8439728 8519260 8482994
3668 8514343 8658054 8500865
3669 8566446 8715162 8523140
3670 8561694 8771348 8520537
3671 8563339 8708300 8499355
3672 8543961 8704659 8529071
3673 8583573 8649916 8468839
3674 8557470 8520667 8367268
3675 8499851 8418730 8246188
3676 8447580 8222536 8157854
3677 8422164 8112130 8053651
3678 8344035 7975682 8002262
3679 8317398 7922764 7988648
3680 8285129 7965021 7978560
3681 8348142 8076105 8065026
3682 8389443 8176231 8124522
3683 8390180 8330412 8274852
3684 8444176 8444582 8357462
3685 8489600 8550750 8477093
3686 8546022 8762885 8555240
3687 8584981 8828607 8634420
3688 8653921 8985281 8689333
3689 8643535 8986803 8736945
3690 8675555 9010175 8736044
3691 8641332 8948100 8725157
3692 8571824 8939990 8703621
3693 8537617 8845417 8644175
3694 8503230 8688158 8569192
3695 8469227 8559831 8458346
3696 8377624 8337175 8320910
3697 8327188 8204896 8241314
3698 8254765 8047064 8141496
3699 8266394 7930773 8088784
3700 8219573 7898269 8010227
3701 8244805 7971859 8076704
3702 8285182 8001872 8088360
3703 8333335 8071290 8149888
3704 8360109 8209415 8222105
3705 8388797 8286913 8303939
3706 8487322 8509361 8388499
3707 8503379 8591595 8502564
3708 8525292 8713096 8579272
3709 8576562 8821518 8566337
3710 8556427 8829267 8639427
3711 8577484 8800145 8611832
3712 8490123 8700797 8545090
3713 8471333 8637858 8522108
3714 8405328 8508725 8478167
3715 8332649 8365598 8364307
3716 8261701 8128899 8261884
3717 8199951 8026504 8176023
3718 8095348 7867477 8068716
3719 8102474 7751692 8020916
3720 8087613 7667563 7949497
3721 8082858 7728258 7967138
3722 8149168 7782269 7999862
3723 8160625 7844352 8072690
3724 8208232 8005338 8131215
3725 8224465 8124454 8248216
3726 8303142 8355969 8400114
3727 8351301 8458952 8453638
3728 8429682 8556272 8500007
3729 8442579 8603420 8527703
3730 8445840 8628813 8557515
3731 8442668 8588103 8487523
3732 8422000 8539217 8521771
3733 8405857 8482468 8420090
3734 8361186 8358516 8360565
3735 8313879 8235125 8243831
3736 8232169 7988362 8135500
3737 8196980 7851452 8014686
3738 8123247 7726588 7959274
3739 8087345 7675747 7956270
3740 8073968 7652077 7888689
3741 8099092 7697602 7997102
3742 8171583 7780908 7964850
3743 8162927 7849464 8063549
3744 8211617 7975848 8117468
3745 8246696 8126275 8229418
3746 8364781 8366941 8382944
3747 8414011 8461524 8445756
3748 8462346 8584064 8540282
3749 8461875 8604015 8571226
3750 8471122 8673074 8572294
3751 8458918 8596068 8506499
3752 8412176 8540550 8484402
3753 8423799 8444198 8407996
3754 8381771 8361749 8350523
3755 8335623 8211090 8242961
3756 8236727 8003604 8123349
3757 8201431 7844891 8041780
3758 8147308 7734138 7943523
3759 8104161 7654661 7913347
3760 8074959 7619634 7882751
3761 8108146 7637995 7942700
3762 8176477 7743677 7947717
3763 8165339 7824722 8021940
3764 8231519 7930108 8070285
3765 8232292 8046868 8185127
3766 8357680 8296656 8308163
3767 8356941 8431028 8412653
3768 8430538 8541981 8485143
3769 8470534 8640858 8529930
3770 8473896 8709598 8558902
3771 8460828 8648264 8570428
3772 8388848 8551105 8502011
3773 8404034 8520969 8445581
3774 8328847 8366748 8362537
3775 8316945 8189316 8264764
3776 8214125 7968566 8102156
3777 8188801 7845514 8004942
3778 8137574 7707875 7929012
3779 8107007 7687720 7934351
3780 8123025 7640488 7893204
3781 8124811 7677682 7919014
3782 8149919 7709626 7950519
3783 8152824 7827803 8006473
3784 8269425 7901562 8052472
3785 8301552 8054902 8101220
3786 8387736 8226411 8182560
3787 8479726 8283015 8142155
3788 8555730 8305102 8118676
3789 8601571 8260676 8071499
3790 8605277 8272508 8016285
3791 8620479 8132562 7883021
3792 8591240 8009404 7775135
3793 8592325 7867703 7659775
3794 8520835 7686654 7544084
3795 8489839 7536537 7376834
3796 8425154 7337637 7264774
3797 8409288 7188145 7096503
3798 8405919 7058574 7026872
3799 8448365 7038290 6952238
3800 8513358 7101528 6932855
3801 8581042 7262995 7062775
3802 8732258 7496049 7132430
3803 8849227 7770065 7250227
3804 9072323 8068478 7376038
3805 9277322 8441017 7527989
3806 9540383 8922641 7726890
3807 9691202 9339320 7975563
3808 9966563 9813480 8267598
3809 10113737 10342343 8604272
3810 10233878 10679167 8775506
3811 10394055 10947069 8971097
3812 10409419 11189644 9162857
3813 10452169 11331954 9279110
3814 10322985 11490742 9568706
3815 10146923 11775175 10086926
3816 9659245 11989124 10715291
3817 9453554 12301682 11231390
3818 9235992 12454243 11693300
3819 9065304 12648947 12032624
3820 8976607 12943180 12358013
3821 8949630 13253733 12687610
3822 9004749 13572500 12914689
3823 9081220 13641781 12984204
3824 9132762 13698115 12962652
3825 9130864 13939633 13244806
3826 9219058 14166459 13365235
3827 9252867 14126444 13280996
3828 9234295 13784400 12938530
3829 9050747 13380686 12741531
3830 8826420 12973452 12489583
3831 8659020 12330529 12024704
3832 8494267 11528057 11373858
3833 8190708 10770344 10977185
3834 7890425 10130603 10662142
3835 7712772 9574987 10189016
3836 7629382 8917708 9615270
3837 7595939 8454925 9187355
3838 7619311 8089973 8848066
3839 7630973 7902484 8641213
3840 7692589 7795221 8449759
3841 7758755 7682277 8291670
3842 7785985 7623392 8195264
3843 7821315 7605815 8147877
3844 7888372 7643884 8115618
3845 7892570 7652928 8124282
3846 7998968 7825118 8151068
3847 8067340 7857285 8200459
3848 8181971 8049399 8256468
3849 8255721 8133612 8308771
3850 8335273 8216802 8270918
3851 8330908 8223768 8240008
3852 8342542 8213758 8246358
3853 8376743 8237489 8205479
3854 8343405 8149467 8198281
3855 8316049 8044268 8081664
3856 8268848 7890227 8052378
3857 8202492 7813434 7981993
3858 8142478 7671933 7896744
3859 8109781 7597783 7842914
3860 8104909 7590266 7845051
3861 8137437 7636538 7882827
3862 8154216 7675324 7877215
3863 8121127 7733198 8011346
3864 8174414 7911502 8091733
3865 8187179 8062167 8219402
3866 8293712 8266038 8317782
3867 8345577 8370392 8403846
3868 8441640 8501065 8433278
3869 8404978 8558773 8501701
3870 8398454 8567395 8518532
3871 8407103 8522273 8488140
3872 8385881 8467675 8482418
3873 8375159 8385265 8363116
3874 8317816 8257291 8300616
3875 8306291 8133869 8176579
3876 8196648 7873560 8048211
3877 8152362 7794971 7967325
3878 8129159 7647250 7923793
3879 8119537 7600679 7856412
3880 8048950 7560611 7819127
3881 8090904 7601274 7885828
3882 8135216 7759285 7941561
3883 8141585 7829132 8037407
3884 8185124 7928422 8100947
3885 8239661 8102120 8253462
3886 8325972 8323225 8368070
3887 8360511 8398446 8406463
3888 8453198 8523139 8472406
3889 8471527 8619395 8509562
3890 8478225 8620326 8537608
3891 8429938 8564483 8505619
3892 8414402 8460747 8416900
3893 8410577 8374599 8338560
3894 8352725 8238225 8260899
3895 8322281 8080698 8135721
3896 8248134 7895523 8018398
3897 8238049 7801706 7930945
3898 8147679 7708554 7859519
3899 8138255 7648892 7855232
3900 8150809 7599773 7821804
3901 8124775 7682457 7885552
3902 8194059 7684722 7867725
3903 8200545 7772598 7934620
3904 8237827 7877041 8030177
3905 8274589 8059429 8142201
3906 8392011 8235126 8218358
3907 8406374 8366953 8276615
3908 8453776 8503716 8440386
3909 8472384 8575152 8414241
3910 8534020 8605302 8478621
3911 8501011 8566566 8450388
3912 8436195 8493171 8442966
3913 8432415 8434776 8332053
3914 8414013 8308798 8247559
3915 8366313 8166099 8156498
3916 8265115 7983908 8005644
3917 8247430 7858799 7968200
3918 8154102 7718192 7878609
3919 8134021 7611277 7809581
3920 8141663 7567210 7777601
3921 8169894 7627426 7806408
3922 8217001 7671135 7862946
3923 8197399 7798419 7945744
3924 8262575 7923472 8026949
3925 8326780 8088428 8111436
3926 8401012 8275776 8243102
3927 8447138 8394423 8294016
3928 8491054 8555574 8447933
3929 8518866 8599787 8447483
3930 8526136 8627731 8494827
3931 8513215 8589160 8495497
3932 8517222 8572272 8431225
3933 8526568 8474701 8350313
3934 8425892 8360301 8303807
3935 8403867 8228800 8221030
3936 8299883 8092925 8111637
3937 8269466 7953927 8058466
3938 8246661 7865414 7965676
3939 8208337 7827036 7970639
3940 8212107 7788410 7938753
3941 8199619 7837073 7969894
3942 8258874 7892856 7973412
3943 8241777 7950709 8034999
3944 8339513 8074114 8108984
3945 8386936 8244113 8216804
3946 8476727 8386850 8311329
3947 8499416 8484936 8331993
3948 8547277 8606650 8428884
3949 8592840 8650222 8438974
3950 8623032 8711597 8442256
3951 8590988 8634095 8421500
3952 8529706 8575848 8375465
3953 8557799 8509505 8299234
3954 8463406 8368016 8260322
3955 8480441 8282740 8170392
3956 8372797 8075898 8089984
3957 8323571 7939442 7986766
3958 8286212 7830782 7969350
3959 8227342 7795119 7909758
3960 8253258 7711856 7839985
3961 8294431 7777955 7838367
3962 8303369 7798074 7924114
3963 8314481 7961907 7956183
3964 8442189 8079445 8014851
3965 8420466 8201293 8159271
3966 8518489 8380619 8275422
3967 8558665 8482930 8323312
3968 8628102 8628653 8350452
3969 8633345 8678441 8424689
3970 8642350 8749668 8421859
3971 8678398 8721469 8425573
3972 8652182 8644595 8352301
3973 8633585 8549608 8273150
3974 8582110 8450321 8235925
3975 8553074 8317516 8118971
3976 8474367 8085161 8013053
3977 8436443 7984085 7913203
3978 8383609 7846509 7819663
3979 8368490 7818645 7826253
3980 8360051 7723535 7748006
3981 8400290 7827093 7814087
3982 8415389 7908330 7853353
3983 8465618 8027060 7908558
3984 8500415 8166662 8033941
3985 8541231 8339715 8149974
3986 8681746 8542458 8246457
3987 8711119 8663785 8313705
3988 8776887 8840762 8420604
3989 8806767 8901876 8478204
3990 8788766 8984363 8517589
3991 8832851 8936005 8476121
3992 8768547 8886870 8457572
3993 8802417 8804294 8369498
3994 8772479 8711786 8318254
3995 8767006 8585103 8175341
3996 8600019 8344495 8110577
3997 8609419 8290379 7973301
3998 8553666 8123678 7935665
3999 8572029 8123029 7901489
4000 8608728 8065453 7859999
4001 8623279 8118979 7886660
4002 8646327 8213295 7928252
4003 8659089 8262571 7957041
4004 8774390 8432198 7993944
4005 8816294 8587127 8170906
4006 8927055 8858014 8262934
4007 8942739 8998235 8391756
4008 8998967 9175302 8509801
4009 9044502 9216994 8549620
4010 9079243 9329187 8593273
4011 9076058 9283228 8583819
4012 9066469 9253789 8553563
4013 9063000 9152307 8445641
4014 9047342 9032705 8364990
4015 9047620 8951386 8220838
4016 8960135 8672402 8113519
4017 8932890 8572880 7957697
4018 8910683 8432019 7914685
4019 8884199 8395862 7848291
4020 8883148 8315100 7818116
4021 8913067 8360360 7808809
4022 8962355 8478831 7852057
4023 9005235 8619036 7955491
4024 9099532 8777315 8056094
4025 9153700 8888907 8163509
4026 9228235 9147762 8254296
4027 9287595 9248639 8378980
4028 9335346 9438873 8449712
4029 9360788 9518789 8479156
4030 9409502 9545915 8480484
4031 9429121 9568913 8522421
4032 9393124 9491728 8494365
4033 9377553 9405545 8364599
4034 9360621 9262809 8300601
4035 9321336 9166544 8167122
4036 9234030 8981389 8125627
4037 9188788 8875276 8015852
4038 9159613 8766971 7952680
4039 9168621 8743462 7954161
4040 9128732 8728638 7939933
4041 9145277 8788504 7966917
4042 9193436 8857557 8004665
4043 9225922 8972400 8134917
4044 9284263 9071984 8169097
4045 9362918 9234397 8297493
4046 9411066 9434674 8389127
4047 9403153 9590588 8539771
4048 9530001 9714864 8546973
4049 9525686 9720383 8583141
4050 9530394 9751504 8629602
4051 9497950 9741179 8587289
4052 9513783 9676356 8588250
4053 9441334 9595025 8489407
4054 9434331 9440470 8390982
4055 9374725 9296991 8269460
4056 9298894 9090372 8182220
4057 9291600 9010046 8073728
4058 9178929 8879225 8016610
4059 9143287 8780099 7999827
4060 9158384 8760076 7962252
4061 9162067 8761307 7991194
4062 9171284 8887306 8061009
4063 9210242 8972993 8131864
4064 9218290 9130975 8235127
4065 9244098 9226631 8340069
4066 9376806 9468946 8469249
4067 9375039 9501827 8534988
4068 9430987 9672114 8597952
4069 9422953 9729982 8635441
4070 9478331 9788192 8690497
4071 9444259 9725369 8628343
4072 9382512 9651907 8613035
4073 9299277 9522731 8575803
4074 9310392 9409910 8474572
4075 9286845 9269282 8339338
4076 9103325 9055080 8300563
4077 9088823 8902503 8240266
4078 8970709 8772854 8140180
4079 8968887 8711624 8127054
4080 8947932 8654279 8053884
4081 8916397 8655765 8115457
4082 8926108 8716584 8160608
4083 8910664 8825856 8269155
4084 9052732 8934872 8295197
4085 9029335 9107563 8427092
4086 9089057 9254866 8541495
4087 9098926 9359931 8604304
4088 9173509 9507783 8721213
4089 9133172 9537304 8740432
4090 9151446 9530267 8784905
4091 9117018 9514770 8762620
4092 9065548 9427773 8714728
4093 9055963 9274392 8601501
4094 8956631 9156978 8570654
4095 8887736 8952117 8449806
4096 8797142 8757921 8311406
4097 8770826 8625221 8240757
4098 8687945 8459277 8099482
4099 8659658 8412539 8095565
4100 8624925 8317424 8073048
4101 8673426 8347137 8079599
4102 8642941 8396026 8127369
4103 8638393 8511516 8217821
4104 8705769 8648129 8318038
4105 8711409 8760203 8412640
4106 8812658 8966102 8543758
4107 8832952 9079654 8605307
4108 8839112 9203697 8715310
4109 8882471 9239363 8749242
4110 8844785 9249426 8774175
4111 8837172 9190604 8752671
4112 8798371 9112367 8710743
4113 8800429 8993815 8575472
4114 8691502 8888569 8543131
4115 8685950 8707786 8411885
4116 8541161 8489297 8310080
4117 8487383 8327425 8216001
4118 8452526 8194519 8074202
4119 8380549 8139619 8077095
4120 8379963 8072352 8067341
4121 8415557 8122157 8107018
4122 8384683 8158683 8156232
4123 8403067 8309191 8222991
4124 8455659 8363052 8325758
4125 8470684 8520667 8385279
4126 8621390 8718456 8503742
4127 8637799 8802493 8558027
4128 8645453 8924247 8606393
4129 8683801 8948665 8598840
4130 8697058 8987933 8664133
4131 8672143 8932489 8675701
4132 8625285 8881895 8619342
4133 8614765 8758542 8548186
4134 8509066 8634211 8471820
4135 8516012 8408029 8278463
4136 8384228 8265386 8179040
4137 8356544 8126075 8125385
4138 8317683 7971653 8048391
4139 8268912 7956538 8061577
4140 8266716 7912678 8011116
4141 8278050 7949105 8028461
4142 8313040 7967879 8051098
4143 8339880 8063663 8062033
4144 8373156 8144236 8157719
4145 8369393 8309073 8296166
4146 8476133 8498692 8348688
4147 8510090 8585195 8445914
4148 8568407 8729648 8535841
4149 8584545 8753727 8545677
4150 8592733 8812090 8601798
4151 8597858 8773947 8544641
4152 8548451 8686711 8498536
4153 8532872 8552529 8401453
4154 8458434 8484031 8353242
4155 8453743 8278191 8206233
4156 8335662 8114698 8162885
4157 8305493 7999139 8040426
4158 8266600 7862057 7978339
4159 8196963 7858537 7978030
4160 8204983 7813983 7932635
4161 8245226 7849906 7979237
4162 8259220 7908413 8067082
4163 8312413 8070541 8092871
4164 8343567 8156798 8226519
4165 8431169 8334986 8280604
4166 8492539 8547734 8423774
4167 8522362 8638188 8492986
