-1.452015251429272791e-02
-1.205911794823488759e-02
-1.170227600292794712e-02
-1.038571046189540326e-02
-1.103963931095219841e-02
-8.695769713014334101e-03
-2.066751386680321101e-02
-1.376430751155233168e-02
-1.645818011062616382e-02
-6.555595019490101372e-03
-1.964492916086635343e-02
-1.826428392673018486e-02
-1.645727948105657479e-02
-1.937738176581993432e-02
-2.112404484401775306e-02
-2.116545306065020782e-02
-1.891959989153413346e-02
-2.208614532330754887e-02
-2.420523600487212157e-02
-2.586761935292991588e-02
-3.467842640906404483e-02
-2.532173244257041045e-02
-3.244677236209780880e-02
-2.362023982193039995e-02
-2.636453284331208291e-02
-2.305693455606538933e-02
-1.748280654866629646e-02
-1.542607362095615997e-02
-1.221341752550852977e-02
-2.020980266646843493e-02
-1.844797159191846614e-02
-1.577182789905584581e-02
-1.575897057867947648e-02
-1.261018538422031821e-02
-3.310880867775645164e-03
-3.548128252706450603e-03
-6.572423673694594015e-03
-7.864415247634148898e-03
-1.029301002535587539e-02
-1.357829888217643166e-02
-1.682458951978160755e-02
-6.214854308700945573e-03
-3.917624868342239886e-03
-1.770200842800107033e-03
4.693945502364349487e-03
1.975339877832382740e-03
4.355838463764305502e-04
-7.158488203358182034e-04
9.229992702489586698e-03
1.013501101292546558e-02
6.618591079916136266e-03
1.302023318331002599e-02
1.440166968059142238e-02
1.604168447288578658e-02
1.931221533442706306e-02
2.611095135586516403e-02
3.340453887572358838e-02
4.869383815932237791e-02
5.319346500001365108e-02
5.370563024050334366e-02
5.854465099888128687e-02
5.398616595281169328e-02
5.626106448302004015e-02
4.458456361187546069e-02
4.561936310570580133e-02
3.808604516699354292e-02
2.957260235392944470e-02
2.703171025838790875e-02
2.215780063045968973e-02
1.823765369497643007e-02
2.015346202115075869e-02
1.568513054330622492e-02
1.680944485643742770e-02
1.609915206649459307e-02
1.473750429249898186e-02
1.062883477719056557e-02
1.377551955825362384e-02
1.023292287032018244e-02
1.172433739116363061e-02
1.413815988086064568e-02
9.805224849700699963e-03
6.332259139814055970e-03
-1.328721888457229383e-04
-3.668873089359592221e-03
-9.229720531413909690e-03
-1.078882154777294211e-02
-1.599851224111836778e-02
-1.086585974749576522e-02
-1.286675768176182011e-02
-9.804350106563664013e-03
-1.986433196013348557e-02
-2.081240775680037736e-02
-2.830336696140733910e-02
-2.791772736570719005e-02
-2.935116441254093100e-02
-3.422482888765820963e-02
-3.826141467805888041e-02
-2.912566112763537163e-02
-3.327216764014162553e-02
-3.125053587429182933e-02
-2.953057044959206401e-02
-3.015759893780012302e-02
-2.832001622701729726e-02
-2.789528114974748618e-02
-2.989199293263378188e-02
-2.567705951319043667e-02
-2.344951782959292519e-02
-2.463285842190687802e-02
-2.706230395558828494e-02
-3.170832265625900259e-02
-2.775520755862093125e-02
-3.038113435383893446e-02
-2.779946642692021630e-02
-3.805493293451933656e-02
-3.301936806866445639e-02
-3.330396507824218144e-02
-3.885025637956451838e-02
-4.260136387715296458e-02
-4.394294696094935837e-02
-4.037908957881364280e-02
-4.651840999901935003e-02
-4.866041746971172532e-02
-4.737499202943773469e-02
-4.648192198834144584e-02
-4.221126675612263401e-02
-4.479757558293540054e-02
-3.811468483575863875e-02
-4.580936206218799711e-02
-4.551841266710698886e-02
-3.636847199013792942e-02
-4.107908682068228678e-02
-4.112920648849638372e-02
-4.550743317358041384e-02
-3.412668042325572859e-02
-4.217906667066784188e-02
-3.906351729939883111e-02
-4.479810676174200701e-02
-5.796029133068947292e-02
-4.940910727117708845e-02
-5.305652448651110298e-02
-5.412382094121159781e-02
-5.996764411011662466e-02
-5.443240594214893147e-02
-5.288021923325303408e-02
-4.431557786130957410e-02
-4.006657120605561229e-02
-3.852282049440880485e-02
-3.408873620680208383e-02
-2.904339161521296564e-02
-2.522355919065089047e-02
-2.814987073614350077e-02
-2.652346176174336101e-02
-3.079393300049693138e-02
-3.842290142712090351e-02
-4.326400432513821670e-02
-4.915474556751142643e-02
-5.793223465214081269e-02
-6.498026696058567531e-02
-7.302969309667406428e-02
-7.836675394444742038e-02
-9.371106167772080831e-02
-1.047777090268677824e-01
-1.227864547658631955e-01
-1.313443689687376348e-01
-1.419884212742091312e-01
-1.422105423799386870e-01
-1.371671952621673074e-01
-1.322348860659549596e-01
-1.375264674180031177e-01
-1.431996817578650716e-01
-1.393562469414087457e-01
-1.517117650962906406e-01
-1.432393288583359015e-01
-1.423400606154148207e-01
-1.405931529654100287e-01
-1.367366361522127649e-01
-1.208615628914421203e-01
-1.003893941022475644e-01
-7.845034700952924211e-02
-4.082034328767147890e-02
-7.493540500225215339e-06
5.510263017581562561e-02
1.162450171491522521e-01
1.885211036745597646e-01
2.449172138600910209e-01
3.075416282861322959e-01
3.603504427123201959e-01
4.077785231514277076e-01
4.552411482392642039e-01
5.240356095007949744e-01
5.901702890018035719e-01
6.543184628144375070e-01
6.910236156009785802e-01
7.250888546282130420e-01
7.611084368981100301e-01
7.958541867456018215e-01
8.121891962823439837e-01
8.136963057932286025e-01
8.022539378673396726e-01
8.058806853173436924e-01
8.100315685176362468e-01
7.803812583189260188e-01
7.158960501886434402e-01
6.428493112318677261e-01
5.693375240658327119e-01
4.954900347849635622e-01
3.891813267083300554e-01
2.991956327082575529e-01
2.268887496060219000e-01
1.659616337948317533e-01
1.003567658708750532e-01
4.684409008495626914e-02
-5.783697996599834745e-03
-3.046885196515214389e-02
-5.434294838464936994e-02
-6.751593297300939600e-02
-9.497772843237373142e-02
-1.242089108494452976e-01
-1.357111717258189243e-01
-1.546771965129369875e-01
-1.633791042245531511e-01
-1.663593780032266434e-01
-1.642106991490603352e-01
-1.572169113184463396e-01
-1.491673663517256720e-01
-1.404202001216308671e-01
-1.284223327358746114e-01
-1.172242569250472322e-01
-9.827229491942435224e-02
-8.606288423414842903e-02
-7.112182974836633864e-02
-7.096469986804032626e-02
-5.845280019976595298e-02
-6.114891788305765186e-02
-6.641064054320278132e-02
-8.482353680035559229e-02
-8.955971507391868869e-02
-9.048068710094747669e-02
-9.228800046397078738e-02
-9.149925610350151395e-02
-9.053841091932945950e-02
-9.442116503730985100e-02
-8.657578200451498951e-02
-8.544594303095709442e-02
-7.764844295313311218e-02
-7.344232906756853474e-02
-6.520986174427501059e-02
-6.289234674438759498e-02
-6.086725580060015073e-02
-6.463470489301981203e-02
-6.267782019727408116e-02
-6.489914446579569951e-02
-6.592323360913554531e-02
-6.940901271906230185e-02
-7.934410674291403343e-02
-7.840334855489505816e-02
-9.131111227609750580e-02
-9.000035941473172318e-02
-1.041851668629226180e-01
-9.693473100554578226e-02
-9.837938149896385820e-02
-9.457406194858625215e-02
-9.522143932530557908e-02
-8.558948719367498459e-02
-8.123816702180775007e-02
-7.830913933996963561e-02
-7.195814661058264061e-02
-6.745465670346006970e-02
-6.832053068533705531e-02
-6.814341146423941176e-02
-6.247247833812763496e-02
-5.340794969745676912e-02
-5.859760857106122156e-02
-5.844385474769575595e-02
-6.242945416969492012e-02
-6.161886201947808228e-02
-6.373996679200788495e-02
-6.810046917163681268e-02
-6.512152982796137746e-02
-6.709416650103272595e-02
-6.634166399848673290e-02
-6.806115146555669071e-02
-6.469315660436358861e-02
-7.072243783824105900e-02
-6.586319772022319885e-02
-6.273732509552581993e-02
-6.419987589517944793e-02
-6.098249723793847110e-02
-6.813285271485636230e-02
-6.623216544981436193e-02
-6.409301408855916371e-02
-6.338686191227138611e-02
-7.064857750910025214e-02
-7.396936590960401237e-02
-6.169244737236612153e-02
-6.488175149108710293e-02
-6.003575843329556072e-02
-6.010904424238894261e-02
-5.590981936607164471e-02
-6.404234386713492100e-02
-6.146107613101126077e-02
-6.575040791736169732e-02
-6.881254955657301053e-02
-6.633611288691443342e-02
-6.398229803925042924e-02
-6.254328761946043036e-02
-6.235192264685074370e-02
-6.639660261259805463e-02
-6.768756323026980937e-02
-6.621999309749138085e-02
-6.238327669761412064e-02
-6.433918410719285941e-02
-5.516326153892836537e-02
-5.792413105338289903e-02
-4.537270913238489189e-02
-4.369140545710503698e-02
-5.248764239260561570e-02
-5.763077498651092423e-02
-5.632690608452683989e-02
-4.892565292757389273e-02
-5.455635276520365284e-02
-4.935180717284093355e-02
-5.342185811965038944e-02
-5.441407365415174002e-02
-5.007458444170331813e-02
-5.182795753599511723e-02
-5.939012745860550169e-02
-6.080956651076752095e-02
-6.099026268131968465e-02
-5.796923681313104204e-02
-6.137906807419157840e-02
-6.083584723318113952e-02
-6.168145060129870405e-02
-5.463951698883007246e-02
-5.186877823832447554e-02
-4.343434312872473946e-02
-4.219518236609109962e-02
-4.221181506571602959e-02
-3.963431868989097939e-02
-4.676706207030445483e-02
-3.432623627579955983e-02
-3.535196210648638981e-02
-3.622757640040752403e-02
-3.901816971257376920e-02
-3.323009883827598987e-02
-3.833098679571655953e-02
-3.899875057252011334e-02
-4.819917445338139927e-02
-4.528962076432296868e-02
-4.705284058089820309e-02
-4.279606743266906044e-02
-4.327459271018940790e-02
-4.303801556772579584e-02
-3.707071535187733691e-02
-3.289609010045957405e-02
-3.504227298052464690e-02
-3.290222358789640644e-02
-2.838906136937591196e-02
-3.187348794176880773e-02
-2.851498063829371876e-02
-2.530673519715120889e-02
-2.502720797620283655e-02
-2.218249381022929789e-02
-1.740730196258866158e-02
-1.570455714604834796e-02
-6.154018077460965408e-03
-8.092186574146009725e-03
-6.741968891863514557e-03
-2.154207806614127918e-03
2.849911383529746267e-03
5.997311473353361677e-03
4.169232411201928556e-03
5.188586018705088065e-04
6.638704561377051228e-03
8.015600362008323820e-03
1.225024225308191106e-02
1.546133094212331915e-02
3.479721389773038354e-03
7.905530372538938089e-03
1.260099419914850749e-02
1.094178494403341695e-02
1.514871829184194496e-02
1.604985136341241514e-02
2.456132859647996991e-02
3.026744237036671503e-02
3.778782853102158334e-02
4.217302149809531997e-02
4.737116574377042699e-02
5.093326344602311373e-02
4.804802178184186534e-02
5.227855149814375491e-02
5.633453539713006997e-02
6.320717511141404898e-02
6.318406258140429888e-02
7.237320266375801836e-02
7.433998075931302907e-02
8.207706644740231372e-02
9.124665932711906180e-02
9.646103405881278903e-02
9.862775719754324211e-02
9.993834099557397099e-02
9.686988014988495710e-02
9.306190348815157609e-02
9.590355534659855685e-02
9.488178585480588900e-02
9.379501786110899797e-02
9.215645847032694071e-02
9.027323402945719444e-02
9.503670652860296553e-02
9.319817193613610939e-02
9.659046792633840806e-02
9.262684462329184854e-02
8.837088253515967828e-02
9.216413064997630578e-02
9.278244506092026000e-02
1.004033950997795799e-01
9.903789227227666192e-02
9.927251062540598525e-02
1.036782654821256644e-01
1.073008905644707855e-01
1.224482628977768828e-01
1.236335076706239766e-01
1.207892646802877223e-01
1.243330361317341870e-01
1.318554449628138725e-01
1.300581982962476513e-01
1.365724038278357533e-01
1.308643982479058554e-01
1.300734006867246828e-01
1.315694821085928723e-01
1.319647607317395721e-01
1.314797873268428452e-01
1.245660175012019977e-01
1.215099751534579609e-01
1.219174756030739770e-01
1.256361307748589118e-01
1.192194668640552679e-01
1.204401334945666147e-01
1.156466485190171811e-01
1.154104890773285375e-01
1.141841519175867958e-01
1.059398117452805543e-01
1.098768582862874599e-01
1.081129188594899260e-01
1.096228104239213019e-01
1.109287615670923044e-01
1.112535633472591101e-01
1.070689641527661218e-01
1.052041341305309796e-01
1.037781517133686826e-01
1.098743682776341934e-01
1.102162232990858692e-01
1.076688762865504190e-01
1.071485765884098162e-01
1.071401123517725651e-01
9.943643353983477873e-02
1.083874481237901977e-01
9.620698052419762725e-02
9.573405112879462830e-02
8.729800762338402187e-02
8.492823059341225722e-02
8.247122210514901131e-02
7.634267350317158751e-02
6.708542624173108315e-02
7.078176690631798884e-02
6.817011625939251029e-02
6.732792039088097980e-02
6.743087213445408956e-02
6.433549232558277708e-02
6.794177553165559047e-02
6.512832386096523152e-02
5.865371501604765836e-02
6.172551556301131281e-02
5.719646600966599159e-02
5.238772443285022451e-02
4.596300906655681473e-02
4.275638713534235524e-02
3.737585532130738297e-02
3.849286011080721437e-02
3.956804024355486948e-02
3.757896282880746064e-02
3.409813094291369584e-02
3.128451058131898055e-02
2.800283930666769283e-02
2.602235231223781753e-02
1.970167050039683954e-02
1.934675765431281835e-02
1.978936935023056787e-02
2.340056122021350049e-02
1.917114424099786163e-02
1.589599321605250637e-02
1.093149831071260625e-02
7.789014732105803418e-03
5.135728089055047185e-03
1.193197794435940651e-02
9.810059585020680650e-03
4.511569754860556003e-03
4.931207604551568480e-03
-1.470111953650210523e-03
2.964342509058637276e-04
-5.932083458134784770e-03
-8.690235919089683847e-03
-1.162733614520072845e-02
-4.723565226212866897e-03
-1.001744838626117406e-02
-6.632317902286244404e-03
-8.019247746771318575e-03
-5.403179301203708818e-03
-1.106005918879082728e-02
-6.461344037191452117e-03
-5.727334551581697575e-03
-8.014594155723031577e-03
-8.577866714232218470e-03
-1.053809090102231227e-02
-1.003674237195195662e-02
-1.538571106196418015e-02
-2.078441766086847053e-02
-1.037944717415406615e-02
-1.449314309618277008e-02
-1.479235590400018729e-02
-2.006901689981899217e-02
-1.061680314226109978e-02
-8.782054950692175233e-03
-1.111572130974791683e-02
-1.024537842473882687e-02
-9.911707954753490313e-03
-1.449971731610455450e-02
-1.419036024466091561e-02
-2.091801148529226495e-02
-2.146227869553107848e-02
-2.111333020350492085e-02
-2.201205872775169325e-02
-2.472956784443602896e-02
-2.396153625405272880e-02
-1.931751885412014147e-02
-1.308460504136976787e-02
-6.822920588677505727e-03
-1.042136644295776904e-02
-1.271123561423848081e-02
-9.013883011476986340e-03
-1.045490656572334309e-03
-7.542623759438038533e-03
-2.815410221150949077e-03
-9.732721468758254169e-03
-8.696881769788555872e-03
-4.667815847454681588e-03
-1.356734755509902968e-03
-3.392042312391763126e-03
-7.678894758506027429e-03
-3.262375469655798277e-03
-1.167479311074226533e-02
-1.766699807801863642e-03
-4.817145855184890024e-03
1.565911468650482696e-03
-5.513353080734195721e-03
-6.660753022174281668e-03
-6.998285729540421052e-03
-3.291470521754824574e-03
-4.384321035090010810e-03
-9.985662319301757961e-03
-5.618151400954674024e-03
-3.789383924721945185e-03
-1.066175090393894909e-02
-7.878333560342398734e-03
-7.083511323195956777e-03
-9.069280468691376385e-03
-4.212353316265682324e-03
2.719203458220742498e-03
-5.283250101292713552e-03
-8.073381526564338273e-03
-3.104010903922871378e-03
-3.298561839291780373e-03
2.891685390441489645e-04
-6.062047247719415388e-03
-5.818159193025973508e-03
1.097368265214004879e-03
8.642684161082936356e-03
1.042979978914004846e-02
5.437341855222821430e-03
1.346321120823279482e-02
9.320506570548392489e-03
7.896440630681400563e-03
4.172256168766819151e-03
8.143039752568470568e-03
8.587182748896471374e-03
5.416448376134419540e-03
7.450835872145011862e-03
4.440681421465919598e-03
1.342487888909815741e-02
1.202690964939945317e-02
1.279704094320610608e-02
7.113005649818759935e-03
7.000148357460989068e-03
4.570491752046712541e-03
-3.262415068920776484e-03
2.141290729567923989e-03
3.720565846875523164e-03
8.907040051226111643e-03
8.708776676890850332e-03
1.077814161189716291e-02
8.030558950293809062e-03
8.954989864789930643e-03
1.311401918073840100e-02
4.884022566975065871e-03
4.535622197944122469e-03
1.280690453653643424e-03
4.632654801827285063e-03
6.147554263350007986e-03
-9.941870017263765291e-04
-4.054711129084509480e-04
-2.889588282943611475e-03
1.877210454576228038e-03
-2.663486032248640889e-03
-2.526371143772854211e-04
4.364796688260952351e-05
-3.110204437452801507e-03
-9.777405600168709299e-04
-5.046880068809600495e-03
-9.103576605258956178e-03
-8.519592435366596384e-03
-1.290581119624578665e-02
-1.122631527242956562e-02
-1.969429640128428360e-02
-1.772684730372175999e-02
-2.684897992002899247e-02
-2.455876334593543042e-02
-2.994121114448566878e-02
-3.104507819179391781e-02
-2.802515273225281156e-02
-2.423160668841628507e-02
-2.883733181273084867e-02
-2.913244726872932233e-02
-3.331214168197960124e-02
-3.558803423666556665e-02
-3.200090227369156715e-02
-3.541524245831706441e-02
-3.275799795780476309e-02
-3.420784848798252842e-02
-3.622526644256129913e-02
-3.814226777743368046e-02
-3.847620235497822838e-02
-3.612343417774166454e-02
-3.432568292938598109e-02
-3.525770493553559426e-02
-3.532084552012937362e-02
-2.755777538772041790e-02
-2.456910640378962007e-02
-2.085000241964318768e-02
-2.550505556895332759e-02
-2.483945153296529540e-02
-2.271508180561954138e-02
-2.212223545947089587e-02
-1.977452535624468766e-02
-2.313073449106350932e-02
-1.981867854259977690e-02
-2.849217464812403566e-02
-3.136783916180307941e-02
-3.137725423395987256e-02
-2.496599159116685840e-02
-2.186566989218252655e-02
-1.967878224945118770e-02
-2.060040620777581211e-02
-2.153345783160098836e-02
-2.123794275718005053e-02
-1.696124190303416324e-02
-1.673294002517777823e-02
-2.085350061300472735e-02
-1.793051178748850116e-02
-1.289489057279380457e-02
-1.170401980811208720e-02
-1.379497314184552348e-02
-1.535441436706841412e-02
-1.710253262141681052e-02
-1.890513519384662278e-02
-2.102744173326653865e-02
-1.124588343438825966e-02
-1.571706466930378188e-02
-2.024877308342720728e-02
-1.798390380180758807e-02
-2.158739144000276777e-02
-2.455446944238781626e-02
-2.065432496079999680e-02
-2.291333383751747999e-02
-2.454306967653763216e-02
-2.512298359487896704e-02
-2.941928826648010364e-02
-1.794656943254113735e-02
-2.801828445346732366e-02
-1.874513202885896845e-02
-2.201230490257710670e-02
-1.767643128809970321e-02
-1.598898792216452147e-02
-1.905219352877129957e-02
-1.506395351657252579e-02
-2.185958746946548015e-02
-2.186832217444356630e-02
-1.701787269984489370e-02
-1.505961387986765043e-02
-1.698814867298537035e-02
-2.301720886095337537e-02
-1.985158737764869397e-02
-2.444965987925518114e-02
-2.497135258438243355e-02
-2.517830038102308876e-02
-3.112956056408267003e-02
-2.505904042012296884e-02
-2.365800954610797202e-02
-2.341814837830424878e-02
-3.228627269033190750e-02
-3.220368964835684800e-02
-3.391258977101596628e-02
-3.191316650186470927e-02
-3.691801187805932027e-02
-3.154354482973698026e-02
-3.654274424876968741e-02
-3.576823570062970248e-02
-3.389641709099056044e-02
-3.010922516127212401e-02
-2.612816709415743954e-02
-2.600851301886863975e-02
-2.284436791967314750e-02
-2.355306739987494957e-02
-2.678919100838528244e-02
-1.945099393063465243e-02
-2.627199846688899054e-02
-2.752782641915496598e-02
-3.058204829370891886e-02
-2.541772453671786725e-02
-2.441563453867767741e-02
-2.841741457163904361e-02
-2.725132482632364184e-02
-2.821401881200069628e-02
-3.038964538125843440e-02
-3.402371802549186697e-02
-3.479137628137007887e-02
-3.576664022330133808e-02
-4.227021949979337112e-02
-3.926421665508872394e-02
-3.417285642888789887e-02
-3.565414208489969816e-02
-3.634200196136966321e-02
-3.270581934381522338e-02
-3.783976844135039652e-02
-3.714036244669638442e-02
-3.862358383141839546e-02
-3.520231345193125527e-02
-4.137313919949392460e-02
-3.807967751035512549e-02
-3.259083700602183331e-02
-3.327908177766625286e-02
-3.014115716891130337e-02
-3.465127387585897889e-02
-3.533841237419510506e-02
-2.974608550730939438e-02
-3.702691674435276692e-02
-2.945865338849062987e-02
-2.780591859097480967e-02
-2.909835209621691732e-02
-3.030258229569315898e-02
-2.533451182509516286e-02
-3.037075859916393838e-02
-3.195939096357991449e-02
-3.167192933597995363e-02
-3.287729273420447740e-02
-2.703768693070218720e-02
-2.957334758558682886e-02
-2.885788196524530225e-02
-2.803613623634115815e-02
-2.630765119413336350e-02
-2.311330178930115498e-02
-2.969312188473127723e-02
-2.987836462867399234e-02
-2.901263074420645793e-02
-2.637612371485031915e-02
-2.750235224567798564e-02
-2.379106302655009664e-02
-1.892280313478411635e-02
-1.857919518352402211e-02
-1.819355696139790535e-02
-1.558174370365050798e-02
-1.801525279622062659e-02
-2.344056052533716183e-02
-2.223246916305221532e-02
-1.485102771869672988e-02
-1.538841374737076606e-02
-1.799381754890971852e-02
-1.857333392909454872e-02
-2.123236665476535556e-02
-2.179101467902833100e-02
-2.988662380959306031e-02
-3.712708666194719509e-02
-3.253534162249371864e-02
-3.799540796134670551e-02
-3.650913323812576827e-02
-3.205791907502730798e-02
-3.461608133408700105e-02
-3.608128798174026208e-02
-3.738814458941519536e-02
-3.579204670252267295e-02
-4.094332266371880635e-02
-3.859966389257663000e-02
-4.179374075328518012e-02
-4.354512694989032262e-02
-4.523994808650522170e-02
-4.644027990199350864e-02
-4.075996411781057649e-02
-3.885760549283778786e-02
-3.876737779916061832e-02
-3.756094097983775359e-02
-3.356708052182821866e-02
-3.399207866827713698e-02
-4.133934123155091900e-02
-3.501023810028836003e-02
-3.587526683002240091e-02
-2.211036463603965885e-02
-2.693089497967471324e-02
-2.532296956381885344e-02
-1.989395723918230274e-02
-2.695303414647765017e-02
-2.839986613387801562e-02
-3.274380148188293926e-02
-2.620724790622641631e-02
-2.994810296215366652e-02
-3.010422107875210251e-02
-3.641846229932532708e-02
-3.756909991168078111e-02
-3.729833479157451670e-02
-4.053083272069812892e-02
-3.921602113320588057e-02
-3.846953609730408008e-02
-3.524504429868147160e-02
-3.715160408160889105e-02
-3.473521533568890707e-02
-3.218863971930108203e-02
-3.058106905084900795e-02
-2.984569094276623424e-02
-3.009344018146042909e-02
-3.332021175358512721e-02
-3.094255540424040163e-02
-3.084013612845204477e-02
-3.352402058852232969e-02
-3.519117289128720349e-02
-3.049475761755149339e-02
-2.658005227422644001e-02
-2.200033282616820074e-02
-2.800862811866489110e-02
-2.777148931463113701e-02
-2.188235629868462429e-02
-2.428798390137365537e-02
-2.677797633010625677e-02
-1.940166543258337040e-02
-1.592806008179559196e-02
-1.396294203903591935e-02
-5.686898910737370194e-03
-1.423667987347643216e-02
-1.636223657262247944e-02
-1.135374830946955793e-02
-1.656787363716849537e-02
-1.212821827914711825e-02
-1.637992182841552236e-02
-1.801126990586277010e-02
-2.503164571035509933e-02
-2.320948729711680425e-02
-2.106276262046613557e-02
-1.961730683319440338e-02
-1.430044190361601242e-02
-6.208761353647784809e-03
-5.707495860139077948e-03
-2.391904327771032790e-03
-2.888814714208098877e-04
-4.907429683751463045e-03
-1.694163882325794290e-03
-2.998813499920927050e-03
4.327404487149966172e-04
-1.113460387777931437e-03
-2.560169419543401048e-03
-5.405032053826586136e-03
-2.596737535440540867e-03
1.625148899268014091e-03
-4.973877612484800537e-03
4.568847792331909297e-03
8.069412607873749366e-03
1.404275956853051621e-02
2.029263679369686102e-02
3.127500595454590915e-02
2.668388332975624166e-02
3.137245521410481075e-02
3.481543114272378503e-02
3.197338399713600676e-02
2.825313630863179881e-02
2.446513905331426653e-02
1.963203922119116651e-02
1.640063550237613743e-02
9.099199901246413091e-03
1.106489312868208508e-02
6.279829210277254603e-03
3.162716260431519544e-03
8.258777380022452874e-03
7.499810180390364955e-03
9.103730391374798003e-03
4.768337487430329702e-03
7.800619117843576866e-03
7.766620449225936085e-03
7.744566407454689383e-03
8.995886831383748117e-03
1.394419467984508998e-02
5.959564814684403800e-03
-9.846016845789229421e-04
-2.258958839530422757e-03
-1.421613672951160812e-02
-2.411798867885273090e-02
-2.331108698705675053e-02
-2.752078525830847777e-02
-3.377019992589191943e-02
-3.978639395652350252e-02
-3.947528467189709289e-02
-3.757260083940405782e-02
-4.086965721983693012e-02
-4.739096567660827652e-02
-4.088441638528883537e-02
-4.702662184517175659e-02
-4.143526373167916166e-02
-4.411944158695230156e-02
-5.164060775510426193e-02
-5.454444775664496481e-02
-5.521570954983290314e-02
-6.116341900974486823e-02
-6.406748989722343968e-02
-6.751273064949803171e-02
-6.319632798298757681e-02
-5.671043975037270979e-02
-5.789754934670510167e-02
-5.320443401046537346e-02
-5.619931879691864030e-02
-5.383458036794019907e-02
-4.257943604569758289e-02
-4.354399463222824451e-02
-4.198216547401889542e-02
-4.678395648866584544e-02
-4.936152267045934572e-02
-4.939017770852760503e-02
-4.838245055735240774e-02
-5.445207773418958563e-02
-5.441487877676665086e-02
-6.085972815755547050e-02
-6.283585744832176356e-02
-5.596368689139141761e-02
-5.604184632973840952e-02
-5.479008149358854940e-02
-5.220389462528085556e-02
-5.151292626938663854e-02
-5.127775204325280001e-02
-5.634208045182120816e-02
-4.709995312016967972e-02
-4.793412063465374295e-02
-5.042777210982896108e-02
-4.911255282594173543e-02
-5.536224239708331663e-02
-5.480400556126518996e-02
-6.070906468752546026e-02
-5.860676049852076019e-02
-6.925278929299749642e-02
-7.011935433699711950e-02
-7.066949741351080672e-02
-7.271995766183136922e-02
-7.501369150565878607e-02
-7.582279433775207522e-02
-7.422673705605775663e-02
-7.181028048216875348e-02
-6.953040417724887234e-02
-7.515994081108401392e-02
-6.281994925443123989e-02
-6.373296826868413145e-02
-5.771122536411144033e-02
-4.625693713562106790e-02
-4.685266217697470204e-02
-4.151921326833829529e-02
-4.332626095144564982e-02
-4.522468241945909462e-02
-4.863564291940336570e-02
-4.851429947221308492e-02
-4.898073501468136470e-02
-5.949931269615649221e-02
-5.722808116067867878e-02
-6.911434854672504624e-02
-7.480913259470034493e-02
-8.346761226048882154e-02
-8.660935458293250733e-02
-9.683410332952568922e-02
-1.121675232307194348e-01
-1.174165544119754045e-01
-1.314046928753549448e-01
-1.364292546277723339e-01
-1.376830332834150794e-01
-1.406034963753707290e-01
-1.339617250670947501e-01
-1.468470298001204877e-01
-1.461503594246856830e-01
-1.453685019917992927e-01
-1.455871400585316278e-01
-1.582116101942371289e-01
-1.458884700866653894e-01
-1.450965777118052857e-01
-1.306683137421658092e-01
-1.251465351539904347e-01
-1.043825748489268790e-01
-7.729087074821394676e-02
-5.283707325657105436e-02
-1.906651032067963047e-02
3.470196226471633505e-02
9.916919997970619072e-02
1.728371559113901501e-01
2.288794800049981371e-01
2.943597717729520280e-01
3.449458697942764385e-01
3.890713793100548656e-01
4.404238884654649855e-01
5.038979881118854642e-01
5.704265959859633472e-01
6.338514326516727637e-01
6.806922180168228920e-01
7.226035506890412519e-01
7.477886785284770799e-01
7.744252278614736085e-01
8.022253032309221155e-01
8.089569531599223318e-01
7.875346497923172429e-01
7.969020615493060955e-01
7.977044894577045575e-01
7.773228104791344295e-01
7.156643282383940985e-01
6.286769045557950575e-01
5.568768866288913433e-01
4.907130933036871756e-01
3.856705222474361427e-01
2.864081916918552739e-01
2.151411339075128826e-01
1.520861787686696998e-01
8.719883519382831683e-02
4.199972951625918771e-02
-8.998318354336287683e-05
-4.362383629840210775e-02
-5.741020913627381539e-02
-6.725159185614659751e-02
-9.568838628437437155e-02
-1.246116565828242484e-01
-1.379834550599386978e-01
-1.554045156750477608e-01
-1.687390268285351436e-01
-1.731063315320497953e-01
-1.761448854737804881e-01
-1.640598481818764109e-01
-1.592313138543374196e-01
-1.447828879472832786e-01
-1.328661666781301709e-01
-1.078823341087477017e-01
-1.005009034791651823e-01
-8.226015848569268041e-02
-7.070903605734124575e-02
-6.839830234129951059e-02
-5.824874574663668758e-02
-7.238289379746354335e-02
-7.401081463625069912e-02
-7.825933586553063259e-02
-9.187005470966647103e-02
-1.020392963204955761e-01
-1.016997623805284690e-01
-9.876577708474487682e-02
-1.010695220936908001e-01
-1.046470485616693979e-01
-1.039678145001208254e-01
-9.526291131837760773e-02
-8.466067320169079480e-02
-8.019595627909059665e-02
-7.173867559701496699e-02
-7.312892283300187479e-02
-6.551179633699588667e-02
-6.858545216190425897e-02
-6.459544782715465061e-02
-6.798203355748011489e-02
-7.373103914021705840e-02
-7.684480927177550491e-02
-8.274571969566613117e-02
-8.375009523959109359e-02
-9.114613878860555740e-02
-1.002463630270195027e-01
-9.643982493803177070e-02
-1.025819963334250184e-01
-1.006550032659642158e-01
-1.005348918646109535e-01
-9.130180906744223002e-02
-9.537836486993767071e-02
-9.152406837877058443e-02
-8.935566606606371032e-02
-8.278008644564882612e-02
-7.765035337289016848e-02
-7.290222242244293049e-02
-7.911060470075681472e-02
-7.368097803542639213e-02
-7.088834931476306611e-02
-7.574749757897625280e-02
-7.138073987055909564e-02
-7.711361853838105684e-02
-7.435818317875175776e-02
-7.555721217841948611e-02
-7.427737077746748851e-02
-6.819506643146727720e-02
-7.002767188435676804e-02
-7.269522726245880584e-02
-7.214834093182009855e-02
-6.825996574934600769e-02
-7.499410354801250289e-02
-7.485622950422610167e-02
-7.186674550740401735e-02
-6.819969579875462262e-02
-7.066029338045098918e-02
-6.953043217201115844e-02
-6.624482375312956695e-02
-7.117551466899074697e-02
-6.467774104788848177e-02
-6.339471194771961748e-02
-5.817085901916291268e-02
-6.351416876133975098e-02
-6.475627640390685391e-02
-6.871824693250605520e-02
-6.953691521036114986e-02
-6.911628661261653983e-02
-6.956825096424179566e-02
-6.603418319569387407e-02
-5.534908205154243088e-02
-6.255356421819646684e-02
-6.045547867865563862e-02
-6.507230561286669879e-02
-5.800821728536009747e-02
-6.144616868440566648e-02
-5.863339323657090763e-02
-5.975323618562400352e-02
-5.632962255394446949e-02
-6.010212914465951073e-02
-6.013097630486802236e-02
-5.888547300431351550e-02
-5.626347883214388723e-02
-5.179883155152636975e-02
-5.730430861330654269e-02
-5.071972636675781132e-02
-4.701600937669248026e-02
-4.998238815642785937e-02
-5.650095611155780961e-02
-5.028007093162090158e-02
-5.177255711689854323e-02
-5.519191956253299836e-02
-5.154210015157223435e-02
-5.717966053066647625e-02
-5.622464318933739769e-02
-5.648923836818187105e-02
-5.953324037949903058e-02
-5.550310017158255338e-02
-5.917033810848171260e-02
-5.441266570869485175e-02
-4.963625376025304625e-02
-5.076915143153254428e-02
-5.885139657196836183e-02
-5.716726037816366457e-02
-4.931549854154421153e-02
-4.486199544743529888e-02
-3.851132114059419020e-02
-3.730892137084318438e-02
-3.285287474416043185e-02
-3.429752721093592971e-02
-3.166119834394920396e-02
-3.289379316935781006e-02
-3.410104824637238963e-02
-3.271125100631600002e-02
-2.944275868125412199e-02
-3.602836816939813946e-02
-3.584464287541200278e-02
-3.172855074750768889e-02
-3.424732074595016051e-02
-2.685635391770713198e-02
-3.260987634346979025e-02
-3.464546461411921463e-02
-3.157433645142404544e-02
-3.224378933825711169e-02
-2.361441907108796645e-02
-3.267239409626176982e-02
-2.566728777893478863e-02
-2.522714163794925746e-02
-1.764904985433313200e-02
-2.060493506062033298e-02
-2.008900979238059659e-02
-2.042258905909422051e-02
-1.504072239525844346e-02
-9.655424732741058058e-03
-1.061000577660609068e-02
-1.042758018689826649e-02
-1.139335987961720420e-02
-1.161571359780277923e-02
-8.588547723954009783e-03
-8.939460218727934837e-03
-3.692630430009113951e-03
-3.239110145655699213e-03
1.421604854658586881e-03
4.794990812466592978e-03
1.417327660576261916e-02
2.041176085529083917e-02
1.605092389123696783e-02
1.853075553613137139e-02
2.527261709623040975e-02
3.069564852625339402e-02
2.712649592184246394e-02
3.112193957242015419e-02
3.190373176339622585e-02
3.628911427998160466e-02
3.415312552228477738e-02
3.331703453772960621e-02
3.882268374816644219e-02
3.744092525856257403e-02
4.634076970132738893e-02
4.837046282127788199e-02
5.525970644871036619e-02
5.983449568907661664e-02
6.482725450141757495e-02
6.787656039377010231e-02
6.737089102325166667e-02
7.526413920956465109e-02
7.738104903082032582e-02
8.529508319325873611e-02
8.648481337927005352e-02
8.657397888714357670e-02
8.758176196622713405e-02
9.575098061042097708e-02
9.404116466908585270e-02
8.881710044165069817e-02
9.547540908029428230e-02
9.714180259911608939e-02
9.724916423621876582e-02
1.005793328957645949e-01
1.017514102437899748e-01
9.488051317571344345e-02
9.862590432721463074e-02
1.033825646672201781e-01
1.056209054289641847e-01
1.089859453026751357e-01
1.154660019769163659e-01
1.201240479237711822e-01
1.153260432659410917e-01
1.189803823059261134e-01
1.189283755670896836e-01
1.200661981211432749e-01
1.287212308340000000e-01
1.288298585013500919e-01
1.313235680409143846e-01
1.250542648577812610e-01
1.315291895681494072e-01
1.353109530489017276e-01
1.374195852048285538e-01
1.370576544534410912e-01
1.406764089433388820e-01
1.403064943855774072e-01
1.362255762380795154e-01
1.453403761388286641e-01
1.429687022793361129e-01
1.425730442642026974e-01
1.335994978036119107e-01
1.272865991134720653e-01
1.273089058715125566e-01
1.203965614055133582e-01
1.206923699210253886e-01
1.114132857014812350e-01
1.142086332445060304e-01
1.148752371294801122e-01
1.141787777596652287e-01
1.211433433258773951e-01
1.221999728123533968e-01
1.282443698241462204e-01
1.271149929917970711e-01
1.245622824166303655e-01
1.232979933882324408e-01
1.207021864953867762e-01
1.123474664422086100e-01
1.074286481621299361e-01
9.772325925034675009e-02
9.141859799440532619e-02
9.187033026921032075e-02
8.538085355516000785e-02
7.900235624017837299e-02
7.562512937922916123e-02
7.490351520663285356e-02
7.124265359299775113e-02
6.852297861354350594e-02
6.877539603284243963e-02
6.584636173250391078e-02
6.762640916389839330e-02
6.716559564571278340e-02
7.036135625847450559e-02
6.144313353786801102e-02
6.273935139757325086e-02
6.230185788977571359e-02
5.664640140348753405e-02
5.487527051017015989e-02
5.133663184942915958e-02
4.969200895778858040e-02
4.267890590157508157e-02
4.680776608137260375e-02
4.162328264457615390e-02
4.315250930080027914e-02
4.460562736503193015e-02
4.240996397463470124e-02
3.797611225897334908e-02
2.848886700852149012e-02
2.873682732674653906e-02
1.863316314782004213e-02
2.252838980613702802e-02
1.970573359254246260e-02
1.761866267935452424e-02
1.565936736560391562e-02
1.142471592005034342e-02
8.292645155904554422e-03
1.538626491285999265e-03
1.748593378233742612e-03
1.929718598118745909e-03
-4.507429517477179459e-03
-3.065728046917071126e-03
-8.891987794831690550e-03
-3.443697157229586026e-03
-3.837078887018341433e-03
-8.578808656279801603e-03
-1.265853668892491513e-02
-1.137493104109466024e-02
-1.575244789897700670e-02
-1.561466165525815519e-02
-1.551329138643497974e-02
-2.581885611861511887e-02
-1.919948864861997784e-02
-2.448472169319637626e-02
-2.362393871323553718e-02
-2.268172988327121775e-02
-2.042585867721391502e-02
-1.682128609548949605e-02
-1.570568834656116408e-02
-1.307866788577183303e-02
-1.074476918976230433e-02
-1.416315958955804977e-02
-9.064773705623752065e-03
-3.041874688928247750e-03
-3.092217439539246548e-03
-8.221150032942325936e-03
-6.046178032417359738e-03
-8.636693834608966114e-03
-1.623567278510318346e-02
-1.100319024120022249e-02
-1.459219665901967389e-02
-2.310302177509493404e-02
-2.733494825212834378e-02
-3.392478682264465917e-02
-3.387194726661624244e-02
-3.503684674245377551e-02
-4.042532832741696502e-02
-4.084988642455344987e-02
-3.995209624102902257e-02
-3.585043829475187405e-02
-4.233545943874106321e-02
-4.008932288083061346e-02
-3.937162773006286365e-02
-3.703512534035668935e-02
-3.849437892774432157e-02
-3.298437456875236151e-02
-2.986724831897213939e-02
-3.148434377415076924e-02
-2.065513351286363264e-02
-1.750022079241797535e-02
-2.297703886215640701e-02
-2.076535010350077926e-02
-2.411023867291661738e-02
-1.851834366269433652e-02
-1.816155724819257244e-02
-1.822837755884110233e-02
-1.752900341831797881e-02
-1.892792147801514169e-02
-2.092923456389839121e-02
-2.023258657848248099e-02
-2.488260050033941351e-02
-2.069889703724125951e-02
-1.747717681344640450e-02
-1.789413071459555749e-02
-1.971569724168131810e-02
-1.801895111336926369e-02
-1.676961204099280955e-02
-1.485172111501231740e-02
-1.580804770270949344e-02
-1.866190006871748519e-02
-1.928286819687707876e-02
-1.622725893346832482e-02
-9.926280228577999409e-03
-8.560974820306044286e-03
-9.185108103339501007e-03
-9.424711354444226252e-03
-6.253470173861352954e-03
-3.767108132643581797e-03
-1.175120096989579199e-02
-6.349144146772123243e-03
-3.725000317050697340e-03
-7.096286734605050661e-03
1.369451212929195805e-04
-1.918123555078921072e-03
-4.799955141266964986e-03
-6.552420259221869436e-03
-5.635241110596211911e-03
-4.488328578941325198e-03
-2.247054730509012721e-03
-3.761747121853842302e-03
-5.676022136831160303e-03
-7.767377008299103380e-03
-8.846170612896386842e-03
-8.278676507732396495e-03
-1.098298360628346959e-02
-1.468157236720157854e-02
-1.250478325888115805e-02
-1.333623341087453174e-02
-4.990940373092112026e-03
-5.362634662181675615e-03
-2.889618684054351405e-05
-6.566504849569665403e-03
-1.378305260873613491e-02
-1.396221866541358381e-02
-8.557952066453933249e-03
-7.688770755760465647e-03
-9.581580511043075177e-03
-1.001962645040110900e-02
-1.172198839384153146e-02
-8.658606825623249570e-03
-6.731328280665804797e-03
-2.162601133716135493e-03
-5.653087248284616173e-03
-2.276143973355626571e-03
-4.759375186936365409e-03
5.270915963393463244e-04
-1.849274116630827969e-03
1.096892736203169960e-04
1.745434448241933723e-03
-9.131947458118627736e-05
-5.290771998484045113e-03
6.779318080991414419e-03
-3.338524438377676873e-03
-1.392065679494458585e-03
-9.122643579507094813e-03
-5.418865228475566731e-03
-1.169275517255474739e-02
-5.701000773645548136e-03
-3.759937017357994904e-03
-1.960197274878283658e-03
1.775531009076125599e-03
3.052944908766286325e-03
-1.573087969148456722e-03
3.803915049018113947e-03
4.549261524103509480e-03
2.678988117591041274e-03
-1.532866194691395734e-03
-1.044598886318137687e-03
8.450386577618651529e-05
-7.199269469011948530e-03
-7.967328500383952239e-03
-7.168743572713243140e-03
-1.097642163628309575e-02
-5.528066674292730909e-03
-3.751905442665126600e-03
-7.975188999859605943e-03
-9.570848194144554455e-03
-1.273903138336918150e-02
-1.229760560520976043e-02
-1.444765328987263064e-02
-1.528674332375123956e-02
-1.441259780013848246e-02
-1.348733057450723916e-02
-1.818170365338600547e-02
-1.505926446763883320e-02
-1.560937196097711421e-02
-1.641699087347803232e-02
-1.471798144103009243e-02
-1.844310572268259563e-02
-1.219655674768804765e-02
-1.934515400978475963e-02
-2.192024492726762919e-02
-2.068032672297859254e-02
-2.134923533512811389e-02
-2.040097153977571409e-02
-2.154874921188609793e-02
-2.185945367937536243e-02
-2.166794024485763082e-02
-2.219283987473907871e-02
-2.362653752233201399e-02
-2.785921561838478056e-02
-3.061851460121278734e-02
-3.029394740460644719e-02
-2.076471047082317778e-02
-2.194353050065644961e-02
-2.147838579443517304e-02
-2.636699824881294507e-02
-2.190692704460817097e-02
-2.630476203525644596e-02
-2.311650894086092478e-02
-2.435319251851897349e-02
-3.080908869575060827e-02
-2.749499508637931466e-02
-2.967372230100240316e-02
-2.628681752310646491e-02
-2.922977990721076225e-02
-2.907926083722589539e-02
-2.885765211972834976e-02
-3.085268079676040109e-02
-2.253874009062772910e-02
-2.785894386902387776e-02
-2.170059814912006502e-02
-2.698937632539755160e-02
-2.595276951118530295e-02
-2.817158271424968774e-02
-2.775810115671240030e-02
-2.303032034325247501e-02
-3.210706833722665188e-02
-2.585218495069852018e-02
-2.524423550248622306e-02
-2.380333504335485628e-02
-2.293115761633390814e-02
-2.179881179719078688e-02
-2.067985413120798643e-02
-2.287787572534982772e-02
-2.120515471894124371e-02
-2.220840828003878276e-02
-1.837265919637753875e-02
-2.575683602718992216e-02
-2.861104851837992236e-02
-3.300384189474714347e-02
-3.403449400459068741e-02
-3.367453147988574980e-02
-3.572875840128986180e-02
-3.710071051769703310e-02
-3.217704028528112215e-02
-3.546038946895313515e-02
-3.316397414268446031e-02
-3.224715238067399348e-02
-3.570266212968009611e-02
-3.510763722523613239e-02
-3.281954746286219748e-02
-3.821676898395309774e-02
-3.229266214974968463e-02
-3.483157202868303326e-02
-3.337024930764220798e-02
-3.177584455570792166e-02
-3.055060299180434313e-02
-3.032022695318459249e-02
-3.048354077172255039e-02
-2.736340511874402193e-02
-3.205223673798895945e-02
-3.153007581490674394e-02
-3.412505306162660901e-02
-3.598373786080744097e-02
-3.914717903545938960e-02
-3.548267263235149738e-02
-2.948265074923073215e-02
-3.776883868240443753e-02
-3.812711503589505391e-02
-3.054616048967928599e-02
-2.944653595642343635e-02
-2.856837072393247912e-02
-2.251783226344605815e-02
-3.202558403271948961e-02
-2.841147964802193115e-02
-3.238348452631767405e-02
-3.260649050179964537e-02
-2.856263901402189553e-02
-3.351638458208050508e-02
-2.499873438121302804e-02
-2.537976317520462821e-02
-2.286255017095162323e-02
-2.828803501281418331e-02
-3.031179615033163799e-02
-3.291313471625834097e-02
-3.878452669988541324e-02
-3.696881941421925610e-02
-3.924821618523188782e-02
-4.328144088721674887e-02
-4.348410150493414728e-02
-3.466667603481832227e-02
-3.386444429693602487e-02
-3.249072281668752282e-02
-3.470469678351184584e-02
-3.062883714666742030e-02
-2.611997083547490384e-02
-3.378092334053806045e-02
-3.198552447070934779e-02
-3.380151294793909411e-02
-3.248908811518402828e-02
-3.520022728969729453e-02
-3.288543594996107267e-02
-2.475752274708098444e-02
-2.447124995110538936e-02
-3.061821005770326565e-02
-3.159295698487618598e-02
-3.462603724536217342e-02
-3.350624477338415286e-02
-2.744834909231730347e-02
-2.837903183805934315e-02
-2.912808439258440796e-02
-2.595247688871749059e-02
-3.595183000989254918e-02
-2.956108336440399498e-02
-3.520479505387019703e-02
-3.871073701145311130e-02
-3.345752768511722763e-02
-4.038200887014742335e-02
-4.675698007592621330e-02
-4.186892412262532837e-02
-3.714392491843931943e-02
-4.052132856486645451e-02
-4.069550639506436251e-02
-4.611806573269761067e-02
-3.712304317531311959e-02
-3.649872743842119682e-02
-3.554223928930422272e-02
-4.156895017345829668e-02
-3.993101178234503834e-02
-3.703712401551995104e-02
-3.659887133383565860e-02
-3.924866372079105492e-02
-4.061511012331042725e-02
-3.451984287917442273e-02
-3.950156723530906522e-02
-4.160846582594623921e-02
-4.314625977068564655e-02
-4.600125070251392945e-02
-3.568662723683702076e-02
-3.951504285024221019e-02
-3.351550700438332697e-02
-4.117633371781470597e-02
-3.860334498233519707e-02
-3.418203841187616998e-02
-3.713517048162229273e-02
-3.277474491265897072e-02
-3.426301617950211487e-02
-3.132140544870942733e-02
-3.886852285410047347e-02
-3.266957894886413083e-02
-3.883004837447034951e-02
-3.846110692946169696e-02
-3.718787851393501320e-02
-4.164948180829097790e-02
-4.287502004417198531e-02
-4.409078187590043107e-02
-4.038933899159380392e-02
-3.464518684213702127e-02
-3.358287774469637110e-02
-3.253449426848675774e-02
-3.318205174381805289e-02
-3.257347730198389968e-02
-3.045940516639134010e-02
-2.769478628725030589e-02
-3.098114115482242248e-02
-3.376320238417096498e-02
-3.616793117134409208e-02
-2.887137784427773468e-02
-2.952476469034559514e-02
-3.426870534055592721e-02
-4.477771710876721212e-02
-5.205541956690673544e-02
-4.759934960168277218e-02
-5.238706671602444409e-02
-5.049791134978087737e-02
-4.793683195350595394e-02
-4.930527675971863033e-02
-4.904917211959647361e-02
-4.695919904587464444e-02
-4.365560254575084898e-02
-4.609058284876899059e-02
-4.128445388552526296e-02
-3.761594682737845474e-02
-4.172966848907400106e-02
-3.845347801195830861e-02
-3.552456727700148420e-02
-3.148153641585249574e-02
-2.653444262343207516e-02
-2.538486473384016229e-02
-3.064583253353825310e-02
-2.592919777426327954e-02
-2.242815939122744240e-02
-2.892562391388786569e-02
-2.699798199706682222e-02
-3.047108931133091225e-02
-3.423700437881049830e-02
-2.608169736388599169e-02
-3.372860985258896438e-02
-3.604837310915409709e-02
-3.541225110008816568e-02
-3.301813117049856583e-02
-2.822363518943682426e-02
-4.057640176918098085e-02
-4.025244327134691602e-02
-3.803966968550720473e-02
-4.816479136784834747e-02
-4.766719290429888289e-02
-5.867606587333334955e-02
-5.541587959669402874e-02
-5.240969261814076852e-02
-4.726766345151522941e-02
-4.790682213367797315e-02
-4.549709226653109173e-02
-4.548426046352949115e-02
-3.951736731855282070e-02
-3.312047634183590272e-02
-3.214871692556731109e-02
-2.367619109865859439e-02
-2.029812021019661294e-02
-1.764367129839727877e-02
-2.571134251749218613e-02
-2.289126557875076351e-02
-2.811200980169048513e-02
-2.600745043731889083e-02
-2.449402572647030318e-02
-2.054341721552377376e-02
-1.949418472817954218e-02
-2.195472413364252251e-02
-1.646079590542726123e-02
-1.540458328172611413e-02
-1.658743700349596395e-02
-1.060128519139869052e-02
-4.942808574166956959e-03
-6.737887856638535844e-03
-1.295425809866967981e-03
-9.609817120544983382e-04
-5.780678548517936832e-03
-5.742365701471352502e-03
-5.504798296382618084e-03
-4.796293366808757064e-03
-7.694858858905417875e-03
-6.412840415533693772e-03
-3.321467782691045478e-03
-4.467466755468607609e-03
-5.228974659685303727e-03
6.466461574203830054e-04
1.009276459953079019e-03
-1.713904958600354078e-03
4.691182402655535988e-03
2.027763185826447767e-02
1.928584711422809406e-02
2.820897766414176555e-02
2.024376655407056358e-02
2.312143413598377606e-02
2.260280974364559103e-02
2.715828119829977183e-02
1.613554888113910568e-02
9.123551163196630398e-03
9.024763231767818361e-03
5.158822399830231831e-03
-1.249256228972317473e-03
-2.351703514905323367e-03
-2.500260300416501380e-04
-3.675636001816418030e-04
-8.567324564551337396e-03
-5.689503761423853057e-03
-5.636935853360780513e-03
-6.211348748597966818e-03
-1.908234642457928842e-03
-6.503492757310769257e-03
-5.847239829173456194e-03
-6.032399102444019334e-03
-9.547546443327226129e-03
-7.904390306571418279e-03
-1.756860503764168246e-02
-2.232174727544511406e-02
-2.712341157219133603e-02
-3.689813026522992256e-02
-3.239635892537995332e-02
-3.491985336744751756e-02
-2.923928865948188793e-02
-3.421753761323598209e-02
-4.090051350773038497e-02
-3.478763117326100218e-02
-3.873784994134465975e-02
-3.493766457533409309e-02
-4.386497000515565681e-02
-4.424774423917066102e-02
-5.472594572410605096e-02
-5.249312527895577674e-02
-5.326095507746919644e-02
-5.354736318057429223e-02
-5.731545607843546719e-02
-5.477803281028637006e-02
-5.502058129392894958e-02
-5.856154919763634226e-02
-5.561305653845138863e-02
-5.154278241876442124e-02
-5.698202936446883360e-02
-6.181341852803146075e-02
-6.330840001295134911e-02
-5.663636147570672019e-02
-5.961019216976715107e-02
-6.364954876338502210e-02
-6.315681399859052192e-02
-6.435791834228232755e-02
-7.098405071215507789e-02
-6.930731167202919263e-02
-6.661149080905010011e-02
-6.884823153906372006e-02
-7.309379736746057787e-02
-6.768141423872536810e-02
-7.129407504923190864e-02
-6.672646660006165131e-02
-7.239544106321582628e-02
-6.869018920039526854e-02
-7.506331502244301124e-02
-7.980826852316758035e-02
-8.268390575176776114e-02
-6.655695157393026751e-02
-6.768549573903193117e-02
-6.109692988468762298e-02
-5.988861824041535886e-02
-5.975277662079858665e-02
-5.716481331029910073e-02
-6.885749859745204926e-02
-6.951667866276456387e-02
-7.491039612904992762e-02
-8.026355161071740962e-02
-8.964927585690518619e-02
-9.164649712903838452e-02
-9.697190113073250739e-02
-9.753659477829923485e-02
-9.779283859525522704e-02
-9.641850429805448597e-02
-9.646159031195888911e-02
-9.072733959371581669e-02
-8.951118410802161307e-02
-8.019798418361079317e-02
-7.515026213051123616e-02
-6.863442712055578543e-02
-6.405512140220348538e-02
-6.591440609538123940e-02
-6.077726635068581018e-02
-5.649100701757281406e-02
-5.465009404989684683e-02
-5.501654904383834754e-02
-6.475903686425926731e-02
-6.743029694215318948e-02
-7.688148269102901278e-02
-8.340861864987975105e-02
-9.206360570373428587e-02
-9.903155674567332145e-02
-1.099203174795969629e-01
-1.153955176734842158e-01
-1.308081600766022312e-01
-1.386883840490044095e-01
-1.464170407479642444e-01
-1.467385046867517584e-01
-1.565218332684094604e-01
-1.479049582182880851e-01
-1.545130200561540823e-01
-1.535011498522029783e-01
-1.499411689820750460e-01
-1.553821805179691484e-01
-1.643992846468941282e-01
-1.693534445808471123e-01
-1.622641361581612651e-01
-1.501654265717680681e-01
-1.373913842245143568e-01
-1.234084839103141151e-01
-9.606115574687723591e-02
-6.433226350820075989e-02
-2.271839552081711400e-02
1.528937511176575725e-02
7.480255267572932798e-02
1.410240429146814023e-01
2.011604649130620537e-01
2.617415892165303459e-01
3.181713349888621867e-01
3.742737980508420437e-01
4.219819473775556773e-01
4.758697957107209664e-01
5.441548559730193801e-01
6.050724253816649467e-01
6.626296878879160968e-01
7.038424249195176507e-01
7.366182107513571387e-01
7.742588703948747320e-01
8.025421570653389347e-01
8.223088420227828710e-01
8.090827908369906396e-01
8.094742467061872837e-01
8.121957297926527541e-01
8.093863521777411307e-01
7.725901787806414012e-01
7.015790637637935312e-01
6.313346728699399391e-01
5.683012078005200696e-01
4.693771109752586934e-01
3.542466587257077082e-01
2.600968598700903467e-01
1.888908059020609764e-01
1.182047849871692424e-01
6.368940538006939711e-02
2.273396717246889409e-02
-1.912545089724937419e-03
-3.965927653811252007e-02
-5.725516442052175359e-02
-7.969423627710287006e-02
-1.077543361417094281e-01
-1.342611070422571329e-01
-1.529233981530432329e-01
-1.711129350858807685e-01
-1.741337456474144618e-01
-1.875741102983689013e-01
-1.822872687268506375e-01
-1.790028511736027617e-01
-1.742508115901721943e-01
-1.527826869519861575e-01
-1.320830314950215412e-01
-1.162554972467489955e-01
-1.043125164286895501e-01
-8.648206583936179914e-02
-8.134819539569104752e-02
-7.843261873987128485e-02
-8.453546683112445059e-02
-8.560796865054054461e-02
-9.154281066014396950e-02
-1.018349164257167927e-01
-1.121374429842755815e-01
-1.153585302993324069e-01
-1.188703301042392524e-01
-1.169460016467454011e-01
-1.234983466948593733e-01
-1.181356067690878531e-01
-1.174491591016015302e-01
-1.144385779769561129e-01
-1.079806710068496045e-01
-9.618554458066508328e-02
-8.953456427442807453e-02
-8.225317433994949745e-02
-7.896178480680571266e-02
-7.981779211274298014e-02
-8.025924226514369320e-02
-8.609139765774365127e-02
-8.737533423167054281e-02
-9.848635424375684622e-02
-1.004202760445978004e-01
-1.083280128776222817e-01
-1.136797902934749693e-01
-1.142332901836890513e-01
-1.213891675012176430e-01
-1.170565040550057834e-01
-1.269135564870482180e-01
-1.158909702748523451e-01
-1.160134698978821377e-01
-1.086322468858925694e-01
-1.031255706010161255e-01
-9.822329407741647866e-02
-9.207767495095886545e-02
-9.270126727885030782e-02
-8.878549978185079627e-02
-8.962849440575593185e-02
-8.668345964116397351e-02
-8.524512301785236446e-02
-9.336767368555731750e-02
-8.585456941051639035e-02
-9.447281370505422604e-02
-9.075460572502624945e-02
-9.775856340202648820e-02
-8.920186080486552926e-02
-9.574705926730819883e-02
-9.467655636026223176e-02
-9.235969861710779938e-02
-9.169529072174964490e-02
-9.167720723691807905e-02
-9.267887081245906877e-02
-8.897813322419567683e-02
-8.452760179972573784e-02
-8.485159026166499974e-02
-7.747487876485581459e-02
-8.435580662155928167e-02
-7.825389300260687797e-02
-7.200268317794356054e-02
-6.521452326734655802e-02
-7.340127633032555998e-02
-6.610279546378300397e-02
-6.692867702917476569e-02
-6.142487138598201613e-02
-6.337248113233467928e-02
-6.954850815124857810e-02
-6.263430491951382795e-02
-6.989212463360516825e-02
-6.681748333551995600e-02
-7.151893264990150101e-02
-7.168368430654881163e-02
-7.105275797729637688e-02
-7.481418863452871104e-02
-7.818471312393970862e-02
-7.792887128187464540e-02
-7.837974622964016813e-02
-7.699317794848914431e-02
-7.876845604826165914e-02
-7.551183504162561899e-02
-7.794542883758603935e-02
-7.809043724165809497e-02
-7.921086788302078574e-02
-7.748673016639312516e-02
-7.825763823795511831e-02
-7.527105060783711998e-02
-7.354101856868988651e-02
-6.833184312050405440e-02
-6.831897062623748518e-02
-5.787105540982451224e-02
-6.082530803180152823e-02
-5.731111316301751302e-02
-6.241893310847790310e-02
-5.796508055127136405e-02
-5.679302763538596199e-02
-6.457623285222036102e-02
-6.594872740715029824e-02
-6.422533682118392040e-02
-5.987314666758869475e-02
-5.874778853134521306e-02
-5.990322854830654187e-02
-5.347567756550075657e-02
-5.393045178242494853e-02
-4.538929469428598651e-02
-4.257261251919741696e-02
-4.109776693409861181e-02
-4.078521541423363317e-02
-3.493867315220833270e-02
-3.762672146528223127e-02
-3.247543355878568239e-02
-3.462206432410674939e-02
-3.709102095377736497e-02
-3.208422408015221272e-02
-3.789482461088788945e-02
-3.266574973497338163e-02
-3.884341180472339339e-02
-3.751580806739152063e-02
-3.355773650013804676e-02
-3.741574252304913362e-02
-3.821268190424054190e-02
-3.757467004693793022e-02
-2.953482366928228409e-02
-3.200891419724305464e-02
-2.541118749992099524e-02
-2.388714740659381164e-02
-1.748565337979379741e-02
-1.270061306464631556e-02
-1.126709684285120971e-02
-3.474636018730214992e-03
-6.183631729973271263e-03
-3.853591988787985478e-03
-6.193529437914069291e-03
-5.088897548474191623e-03
-2.482402183676457597e-03
-6.596721342656097775e-03
-4.111034954298431465e-03
-4.098647338952599029e-03
-2.795000646706236047e-03
-9.036777961703545969e-03
-2.765005386493046835e-03
4.905382902665733624e-04
-2.111967985086948829e-03
1.025630797730991972e-03
1.155733235066935816e-02
1.345891384508046684e-02
1.431874165301250112e-02
2.054351185163971749e-02
1.777829636388461587e-02
1.845863412404868953e-02
1.810594614960059356e-02
2.303814967486972343e-02
2.034303231940071122e-02
3.080033436540818848e-02
3.479980850724739838e-02
3.253685707433584540e-02
3.912419131538591444e-02
4.697871720017621211e-02
5.088962835960908482e-02
4.698724499658812892e-02
4.851984108695861497e-02
4.842565485250360791e-02
5.128424759332472771e-02
6.137833030423589520e-02
5.536649607844601473e-02
6.349064234010348695e-02
5.588600525167874977e-02
6.525505634891626272e-02
6.684125454273626143e-02
6.477214905928285749e-02
7.254968534118688694e-02
8.439044246771965074e-02
8.487548855873450204e-02
8.446752327714024400e-02
9.127413201891476646e-02
9.365502920212298577e-02
9.266449419747813110e-02
9.183665027665455227e-02
9.862992271369575015e-02
9.887719123958960132e-02
1.054355914030438157e-01
1.089706466994587730e-01
1.085810757537085669e-01
1.158615393497439694e-01
1.064769043480003896e-01
1.091626721635873265e-01
1.155991210130618008e-01
1.151367191549346192e-01
1.163363479430712388e-01
1.106484648687202643e-01
1.141978620938106648e-01
1.098476120446572057e-01
1.151943228675386122e-01
1.123381413253200511e-01
1.139354818260689406e-01
1.169122584756376870e-01
1.174217386872653535e-01
1.187814324565756863e-01
1.150242891408570500e-01
1.243533133675599478e-01
1.179323005333217100e-01
1.197100507490691523e-01
1.110241969525539441e-01
1.072749102853250980e-01
1.087088092491379498e-01
1.001479882840154989e-01
9.736847396894865447e-02
9.270695774042680970e-02
9.891319843363255426e-02
9.632839335723708540e-02
9.754322307786833512e-02
9.494145295233624715e-02
9.118830927064858205e-02
8.915511518104601851e-02
8.541061106822378513e-02
8.759585902639599464e-02
9.086335663932898488e-02
9.686781987670245453e-02
9.309207817930809092e-02
9.157011622747068813e-02
9.626323465279051916e-02
9.700180175411121652e-02
9.405977811486054829e-02
8.530191962437383424e-02
8.405938699472159659e-02
8.395092217189548123e-02
8.167831926274882193e-02
7.804872729377743124e-02
7.778175917480301127e-02
7.891168848727192486e-02
7.707206799056709468e-02
7.245742317753489647e-02
7.363507479236730546e-02
7.674856576914779183e-02
6.751275874401474475e-02
6.686116111964235387e-02
6.178224392409270571e-02
6.718805700722441099e-02
6.132073999924281260e-02
5.470592978417332386e-02
4.943619803425869375e-02
5.213707799028322043e-02
5.014569282850644960e-02
5.014746963567129345e-02
4.918048567991439857e-02
4.126946232475903198e-02
4.339634452390317421e-02
4.974765446843976147e-02
4.074125381278637104e-02
3.735527756197265514e-02
2.740131948116419913e-02
2.888089096796742083e-02
2.915728635469949648e-02
2.777080998970460346e-02
1.825731112383077726e-02
1.369856114648593248e-02
1.036156290963141657e-02
7.463593745778873689e-03
5.433346809857075854e-03
3.377445859278349616e-03
7.463328064242547022e-03
-1.770422596268139692e-03
2.021162090255934629e-03
-3.208032377617908715e-03
-4.612256400784331412e-03
-5.621076791873846901e-03
-4.838460868926586222e-03
-4.319015811727777709e-03
-9.612538533045111855e-03
-7.568787111318919791e-03
-9.514748310164522493e-03
-7.793851103962357030e-03
-1.071974513939122353e-02
-1.676780331582872208e-02
-1.337393802845143753e-02
-1.658379094808837273e-02
-1.298197479739637838e-02
-1.622473842007299272e-02
-1.628020414340558553e-02
-1.745736586281354530e-02
-2.161989051036117271e-02
-2.183524066209718839e-02
-1.518860214403217057e-02
-1.879943601410072329e-02
-2.450506346952896486e-02
-2.714811887290913273e-02
-2.825315715465048783e-02
-2.629137428085781547e-02
-3.279782268431519210e-02
-3.201906594052239541e-02
-3.227012760147307535e-02
-3.472877404007501667e-02
-3.833721245712529146e-02
-3.961430696337842061e-02
-3.634631030654822403e-02
-3.906653206294874447e-02
-3.864421506317072819e-02
-4.270253137198487536e-02
-3.773118497166327856e-02
-3.632680500266349810e-02
-4.013952409238108476e-02
-3.745271398871885538e-02
-3.624111401687024614e-02
-3.375335544781732366e-02
-3.941164260429041999e-02
-3.575234422513062782e-02
-4.301704985533749692e-02
-4.477942667895118412e-02
-4.050512145775675421e-02
-3.868335687092039343e-02
-3.033276204865187342e-02
-2.868279480818558547e-02
-2.421633451126725678e-02
-2.638791158070541432e-02
-2.889206284656353763e-02
-3.162028882511047634e-02
-3.074096632654221839e-02
-3.110498808194739340e-02
-3.442160928092585781e-02
-3.343753045854547246e-02
-3.448822740924117891e-02
-3.641163852345297158e-02
-4.068889335186032241e-02
-3.891817520282192522e-02
-3.664683961807690959e-02
-3.097056426716338073e-02
-2.857139666823216295e-02
-3.179230861259130236e-02
-3.001548346186111438e-02
-2.728457495169134273e-02
-3.191705249169352054e-02
-3.089733983338815992e-02
-2.925339780680447088e-02
-2.759736906924659117e-02
-3.129299573581367788e-02
-2.892826343907717312e-02
-3.123605207339497092e-02
-3.138377426264682413e-02
-3.135764610606384117e-02
-2.998320657573716463e-02
-2.933005196254867553e-02
-2.993274369467913143e-02
-3.118246736041774270e-02
-2.303488694173561058e-02
-2.147975691501080586e-02
-2.561862049797059004e-02
-2.069706068332000104e-02
-1.785545671963228997e-02
-1.382546750966473503e-02
-2.215316960968161109e-02
-1.891258670547790732e-02
-2.747560002969673398e-02
-2.573641302403983921e-02
-2.058258696219861239e-02
-2.169148733673764706e-02
-2.457091290712465348e-02
-2.071037471679393338e-02
-1.164991946394122735e-02
-1.995384811540312775e-02
-1.418126798480567885e-02
-1.290676472130092289e-02
-1.313027013546608224e-02
-9.654064145319551926e-03
-1.068266414788854313e-02
-1.353144385097437841e-02
-2.034249750264449652e-02
-1.356469618914724062e-02
-1.479677887724262231e-02
-1.449409379548316501e-02
-6.553338357883742304e-03
-1.288149455370035668e-02
-1.345104595098167710e-02
-9.961784868677714400e-03
-1.150649171196738152e-02
-9.606423803340424783e-03
-4.738464351784266171e-03
-4.481647284609091564e-03
-6.189360676010613460e-03
-3.512373567534310403e-03
1.538073572565745728e-03
1.776766142740804355e-03
-1.394156006368163503e-03
-2.757468756183989456e-03
-3.782089285748746477e-03
-1.370679099233051979e-03
4.276088348467155242e-04
3.085512783922217395e-03
4.695521107014100082e-03
-1.320632548377664861e-03
-1.820454187720810246e-03
-1.221163000912461882e-03
3.689098801132884020e-04
-4.919499729205134564e-03
-3.483700922649823895e-03
-8.161136609124430841e-03
-8.947685538360783397e-03
-1.230480908180719979e-02
-1.829111992291632127e-02
-1.645256060849620283e-02
-2.297529783949181503e-02
-2.321983229688340256e-02
-2.319261392005000921e-02
-2.272436219090534504e-02
-2.626659673937215000e-02
-2.589426068828160066e-02
-2.281859873638003577e-02
-2.745526958331789835e-02
-2.983199430931493534e-02
-2.803547440126996637e-02
-2.187206227092541866e-02
-2.419883213751872209e-02
-1.556563634412033714e-02
-1.994462514421779797e-02
-1.810217168261674114e-02
-1.865727316135168401e-02
-1.922931510138337075e-02
-1.206690659901155094e-02
-1.085989728004976840e-02
-5.711095706526503335e-03
-1.035832851628248896e-02
-8.611349472753104806e-03
-9.054103150136105782e-03
-1.176733174586674924e-02
-1.229294663552360500e-02
-1.813748684967309011e-02
-2.162537372536654789e-02
-2.610680997674974524e-02
-2.916165971687956215e-02
-2.899255652335785971e-02
-3.206852613226707227e-02
-3.304866418813956486e-02
-4.131625480280654017e-02
-3.485529412516108483e-02
-3.276639229660582853e-02
-2.847473862698823854e-02
-2.912361796225981792e-02
-3.390364430475945046e-02
-3.587022494074620926e-02
-3.518916357052248589e-02
-3.510005074049671325e-02
-4.110848054724491885e-02
-4.551827542896125234e-02
-3.873268642350125024e-02
-4.069013465040571820e-02
-3.627709193241901442e-02
-3.352174163968957288e-02
-3.402465622032913029e-02
-3.071720856831461344e-02
-2.914805716583213080e-02
-3.226815514960690301e-02
-2.675263639102365421e-02
-3.470415495274625783e-02
-3.246342532139090409e-02
-3.572315700986039566e-02
-3.314276348910583092e-02
-4.248225636141567119e-02
-4.352965178713730232e-02
-4.283030281213195956e-02
-4.256319857124435391e-02
-4.023358058399906234e-02
-3.844541112853971931e-02
-3.655790037616046817e-02
-4.242168160812431754e-02
-3.969583365111140072e-02
-3.981529147508011679e-02
-3.795923249319532733e-02
-4.371285075665209963e-02
-3.871903260924236534e-02
-3.909154393115266135e-02
-4.135647763967387203e-02
-4.052478204735643352e-02
-4.735024140175669860e-02
-5.300286755182825882e-02
-5.476370873583769061e-02
-5.001103978776977321e-02
-4.316664439765260930e-02
-4.685519026418116795e-02
-4.261905092693629715e-02
-4.620832448835909823e-02
-4.442555654368929297e-02
-4.439173762998449568e-02
-4.596485913370518261e-02
-4.745882640904286465e-02
-4.188268273157480515e-02
-3.726964985697367450e-02
-4.063494762206754096e-02
-4.671858514147608776e-02
-4.766664538448617261e-02
-4.850308345600351512e-02
-5.001645043044133931e-02
-4.828215508058830707e-02
-4.137815652096965557e-02
-4.292103206408193206e-02
-4.382380041619748923e-02
-4.899533873069905621e-02
-4.308436813845528679e-02
-4.628823272384097187e-02
-4.500006906740827706e-02
-4.595900485703230398e-02
-4.015726394832708213e-02
-3.573752111369343787e-02
-4.002085155315737719e-02
-3.384510339361079811e-02
-3.959185343418059055e-02
-3.599895891791171643e-02
-3.941303863463452295e-02
-3.341843846165826193e-02
-4.320096095962122629e-02
-3.467047047271398785e-02
-3.584531241031341242e-02
-3.353767426682252584e-02
-3.336658777026768607e-02
-3.486751157085887787e-02
-3.645341020089154505e-02
-2.941001730869319264e-02
-2.757874640734114813e-02
-3.537599207374397814e-02
-3.876807011338090359e-02
-3.735083480474876705e-02
-4.507763732479252994e-02
-3.828824030167277126e-02
-4.220257105838853828e-02
-4.819429098017180557e-02
-4.447761255288784632e-02
-4.285046942019821170e-02
-4.034270196524958330e-02
-4.322518904313876753e-02
-4.314364858450192575e-02
-4.864401032494680699e-02
-4.201663932589605466e-02
-4.281700250678310837e-02
-4.444843198663894768e-02
-4.122828454850047120e-02
-3.589790658749580921e-02
-3.996449007777347351e-02
-3.844246446397969752e-02
-3.533383203573126075e-02
-4.572532763667847000e-02
-3.837076606510259058e-02
-3.789574922784222366e-02
-3.493960848249821893e-02
-3.985984386393748302e-02
-4.032315043261325282e-02
-3.919653920568166861e-02
-3.903156057156709213e-02
-3.320394717136254670e-02
-3.229139986552087560e-02
-3.662040784471531918e-02
-3.245304676004756583e-02
-2.613142945392055161e-02
-3.107686741554915866e-02
-3.219896627372220710e-02
-3.237720083332085164e-02
-3.510249521654507099e-02
-2.905545372868434395e-02
-3.905610897063227505e-02
-3.633752641000920214e-02
-3.571117306027971061e-02
-3.471955459075848349e-02
-3.369710295502170716e-02
-3.869897787932130573e-02
-3.660074213179242975e-02
-3.878882805373229381e-02
-4.250369504701811962e-02
-4.789053671271670254e-02
-4.318001480356459254e-02
-4.247286114651871447e-02
-4.378100068079948670e-02
-4.893388991749869632e-02
-5.142975993160547876e-02
-4.394103826907769239e-02
-4.873700770006728078e-02
-4.384444508215956660e-02
-4.088911943536754912e-02
-4.269811728476802237e-02
-4.145627528356909952e-02
-3.721846405554662951e-02
-4.250651036580888054e-02
-4.276612693427273015e-02
-3.787018447670520427e-02
-4.444061308503388652e-02
-3.658351355495470525e-02
-3.590248297419262880e-02
-3.510467279651174888e-02
-3.443577792909002788e-02
-3.555726397022462848e-02
-3.775101829230531614e-02
-3.200857340596263700e-02
-3.028986846840764358e-02
-2.751860607945932902e-02
-3.093045062713584148e-02
-3.382361274141110208e-02
-3.849399713142265256e-02
-3.759029817518899641e-02
-3.963443419510137566e-02
-3.211791781714523619e-02
-3.816603908783100518e-02
-3.399184653071452011e-02
-4.133723619302365204e-02
-3.463122388245654104e-02
-3.884832776569868695e-02
-4.423986603147223029e-02
-4.013973295531114704e-02
-4.027094150947641005e-02
-3.208251313380205971e-02
-3.760058979011660085e-02
-3.575138068146332948e-02
-3.707245412645565619e-02
-2.755133339097726175e-02
-3.459182397487192695e-02
-3.696306282346439875e-02
-3.585903639874299387e-02
-3.995955296618025621e-02
-4.010612017400960738e-02
-3.705519559947445529e-02
-3.642312721461726799e-02
-3.444393404016865556e-02
-3.424767985320631425e-02
-2.785867869615921144e-02
-3.246576814356361140e-02
-3.234718605033304328e-02
-3.675567253177325355e-02
-3.242891000634751109e-02
-3.546558928271115185e-02
-3.263159217034061754e-02
-3.481659118320712398e-02
-3.754220370206839963e-02
-4.108230598428630476e-02
-4.366681466598343331e-02
-3.530749500023866450e-02
-3.923700984524036706e-02
-4.037595333144416987e-02
-4.201069744481600310e-02
-4.094542754525687389e-02
-3.527156311039791881e-02
-4.496722648359041674e-02
-4.768061504220388880e-02
-4.076602392026884569e-02
-4.439233622613014685e-02
-4.034196635750908477e-02
-3.591871235111465666e-02
-3.859530860514170936e-02
-4.317268557078923763e-02
-3.529850735186390587e-02
-3.650616382129723281e-02
-3.858299849806390291e-02
-3.736753637453038568e-02
-3.389552583876875858e-02
-3.465564190373138231e-02
-3.217344769802255033e-02
-3.062754076363161104e-02
-2.921225785857639590e-02
-2.734143742885442041e-02
-3.380850765276710579e-02
-3.429603575119843928e-02
-2.972502053043557524e-02
-3.258201246846847976e-02
-3.178962335025159458e-02
-2.675794919926144377e-02
-2.448070730158380393e-02
-2.246091981044628927e-02
-1.864560123213532261e-02
-2.556977346089139846e-02
-3.167639881914829925e-02
-2.822341980994536037e-02
-2.692477295932182990e-02
-2.898052071857692980e-02
-2.891753715426859106e-02
-3.350185109966341557e-02
-3.006344058882171044e-02
-3.344558743354431041e-02
-3.038424300808251211e-02
-2.750341112135457067e-02
-2.652845682497595448e-02
-2.886253804724137062e-02
-2.852924019182356830e-02
-2.708362015431453607e-02
-2.954021327946354525e-02
-2.911559938559238336e-02
-2.990682213908091303e-02
-2.836773900433420259e-02
-2.722151349736734449e-02
-2.372116221409303893e-02
-2.261450812350185302e-02
-2.924869684862663188e-02
-2.419978760213203905e-02
-2.838936406948289193e-02
-2.692455394981441152e-02
-2.594128228922920609e-02
-2.679349211673420772e-02
-2.028478608547223949e-02
-2.512587015354772468e-02
-2.292947055193617079e-02
-2.040494257038949488e-02
-2.338795516037872613e-02
-2.295086465804341280e-02
-2.216501166547280022e-02
-2.711363709991854165e-02
-2.446718037802275703e-02
-2.718546032721003147e-02
-2.822140166489450763e-02
-2.809941520263659065e-02
-2.636492861249417619e-02
-2.647907140545524562e-02
-2.997269691286019722e-02
-2.377831924700557487e-02
-2.986846965741096760e-02
-2.980515067520606021e-02
-2.679502755095830580e-02
-2.702326927151676994e-02
-2.806680876149192372e-02
-2.361223246267118991e-02
-2.729969561580414261e-02
-3.002902694801512506e-02
-2.828838657225329900e-02
-2.257051238559082407e-02
-2.486804180064361436e-02
-2.027581957305990557e-02
-1.903105108549918434e-02
-1.815960918916381672e-02
-1.885654100347300410e-02
-2.100774942933658629e-02
-2.169406085705549714e-02
-2.057837997228195714e-02
-2.863755195788986185e-02
-3.063784222972965043e-02
-2.135131558060165968e-02
-1.813849654508203901e-02
-2.350190670780605284e-02
-3.140215396577850093e-02
-2.489439803762871772e-02
-2.370134648369304209e-02
-1.608978476016342807e-02
-1.665954276091152764e-02
-1.536779923074482745e-02
-4.652042848894200056e-03
-6.269730967455311443e-04
6.660762391619945433e-03
1.576094579704090393e-03
5.778998244401423179e-03
5.093305659008562358e-03
9.143315640799065669e-03
8.260791936976819017e-03
4.073929997809200287e-03
1.245756490609173373e-02
1.444475555270152700e-02
1.168552659211985478e-02
1.153993874110104123e-02
1.897067302579691361e-02
1.893112930691409623e-02
1.799561765994861506e-02
1.431598763316743739e-02
5.602657537346567018e-03
5.356230240200821058e-03
7.289885274022189776e-04
4.467846615125559140e-03
2.807496476031290378e-03
7.249293691198310796e-03
1.153145472020677964e-02
9.835719386995012137e-03
1.197460380063930518e-02
1.478097074951012502e-02
1.326085315728087188e-02
1.414751031298289163e-02
1.892332174071831297e-02
3.129830468036565172e-02
4.053595740633519906e-02
5.142683403065373415e-02
6.299159323802527854e-02
6.228507790299675495e-02
6.027355831402270159e-02
5.982733410916585282e-02
5.370435451331589949e-02
5.555682373576031896e-02
4.278151744153213532e-02
3.970535265222885357e-02
3.767149420100901480e-02
4.084236155290177361e-02
3.787404154273210644e-02
3.103700662653963160e-02
2.922757166312239807e-02
2.727539105189791258e-02
2.244828428224021621e-02
1.948408097411258311e-02
1.271267388383423569e-02
1.404346856924942877e-02
1.706177695820243478e-02
1.612618754941819166e-02
1.447794519839828986e-02
1.760949538574618778e-02
1.040020097224381157e-02
1.167292929002960999e-02
7.728075370711851022e-03
4.828657342276554409e-03
1.065219945459705553e-02
4.794686717101481754e-03
8.746834120584856542e-03
-6.009628826268986757e-04
2.029166351824152059e-03
3.752884985006588181e-04
-2.403496163433049837e-03
-5.740680440566858778e-03
-4.642224779172643423e-03
-8.178694301139155520e-03
-1.588476595793708590e-02
-2.202399259574328028e-02
-2.133470703531004098e-02
-2.042468457197876841e-02
-2.348456745649607491e-02
-1.706813573926801997e-02
-1.852241485726557890e-02
-1.631034517088758573e-02
-1.757909599506535248e-02
-2.304422448483556263e-02
-2.532142301096274029e-02
-2.813699164550220733e-02
-2.503860548985181733e-02
-2.336434505455575739e-02
-1.883935031305794539e-02
-1.886678475417657985e-02
-1.745575835217472171e-02
-2.152026136225826392e-02
-2.527133422344651770e-02
-2.486483041378650949e-02
-2.387965358217802869e-02
-2.126924154470022366e-02
-2.423331635623315883e-02
-2.239445080639257402e-02
-2.569998645838478257e-02
-2.580528735001330620e-02
-2.346519367872268447e-02
-2.088494361476622707e-02
-2.397813081790622913e-02
-2.388390658071970485e-02
-2.894493974058431895e-02
-2.351822955190174813e-02
-2.466293407002162485e-02
-1.987668786241769681e-02
-2.005698918538978415e-02
-1.229204249326465437e-02
-1.399383263214004636e-02
-1.064979718823799715e-02
-1.751162565016262107e-02
-1.649469459235386459e-02
-2.145847895668417937e-02
-2.251431220805810707e-02
-3.144522263565541209e-02
-3.050556576789120733e-02
-3.360849006326394051e-02
-3.840930105971096520e-02
-4.264778401510715966e-02
-3.989193886536057665e-02
-3.686539520914855483e-02
-3.705904182643116052e-02
-2.842331747724735624e-02
-2.076724475179725360e-02
-1.772475427363096045e-02
-1.511677448113690758e-02
-3.015272647116651328e-03
-5.212015006311854215e-03
-9.923320848692740448e-03
-7.530906488691258005e-03
-8.833178812000741509e-03
-1.351148031405924321e-02
-1.016482178055500007e-02
-1.577412648427112263e-02
-2.344884324694873623e-02
-3.835070054438050047e-02
-3.743464762488368791e-02
-4.860034834117277214e-02
-4.830220101127191690e-02
-5.890518420905033192e-02
-6.794643078357553989e-02
-8.100682572198081299e-02
-9.424751543318443670e-02
-9.286305308598996611e-02
-1.007000498700132418e-01
-9.854736609368741629e-02
-1.024110505827067197e-01
-1.076536107162378020e-01
-1.068927200675544587e-01
-1.003822400154187333e-01
-1.062617877598702743e-01
-1.105654846395466295e-01
-1.077464336537326539e-01
-9.862450468903039003e-02
-8.799415109740699181e-02
-7.407888463997869266e-02
-4.998175570716245630e-02
-2.665361476406458152e-02
7.163848008293616232e-03
4.522371145191228514e-02
9.355052968109511813e-02
1.524464414659815192e-01
2.299627152402783370e-01
2.851663524516200310e-01
3.427353127633860908e-01
4.046863143709242827e-01
4.467665700088554459e-01
4.958925774130964470e-01
5.662780686904524963e-01
6.378697492351670384e-01
7.043949513977605381e-01
7.444345709862540961e-01
7.812795956057629887e-01
8.248030096954375168e-01
8.583761844424826482e-01
8.848380234285745383e-01
8.759144961799281148e-01
8.606431527744875520e-01
8.729001257725199636e-01
8.713015017827666631e-01
8.480590953309438129e-01
7.778937271791488417e-01
7.077568973150307752e-01
6.469172732533365888e-01
5.607582973943139315e-01
4.575028902432363154e-01
3.576246664050742874e-01
2.805865668485358899e-01
2.189522604537361694e-01
1.518749182033387601e-01
9.540905529173704380e-02
5.418210607067730500e-02
3.122938104886985311e-02
1.056603927041499524e-02
-2.244850122768782263e-02
-5.441806722194220125e-02
-7.680454434910155559e-02
-9.456446955633662776e-02
-1.194981399019381940e-01
-1.282747166931085259e-01
-1.397120177270330110e-01
-1.263178015429377021e-01
-1.201655572504398695e-01
-1.036211754037363875e-01
-8.792527314893650026e-02
-6.830407532256932424e-02
-4.552140716309172053e-02
-3.622682971513557781e-02
-2.656805815901774892e-02
-1.603925912449311042e-02
-1.191373289685970782e-02
-1.688802859876892271e-02
-2.115569809343609275e-02
-2.522418151449623558e-02
-3.198530472582905571e-02
-4.542697973596809824e-02
-5.476347760872080084e-02
-4.929051861255218103e-02
-5.172719931830160878e-02
-5.335169723560095889e-02
-5.306861589624656261e-02
-5.039590333106913622e-02
-4.906164043038474531e-02
-4.574914093197868237e-02
-3.943452293072513548e-02
-3.030272600766037439e-02
-2.536242878726413519e-02
-2.324958019186607050e-02
-1.637669792689355752e-02
-2.431445732778692026e-02
-2.003427766116805397e-02
-2.421760223807134516e-02
-2.287739492592066881e-02
-2.918328067211395371e-02
-3.474726512873260731e-02
-2.478327872809193977e-02
-3.020606513677548399e-02
-3.547888148082356530e-02
-3.336976639464206418e-02
-2.997380501999280522e-02
-3.424878508235051910e-02
-3.377614811529594530e-02
-2.698448969281896925e-02
-2.798805812982396723e-02
-2.523193375348575795e-02
-2.831959262367067520e-02
-2.593123360713245340e-02
-2.679611409987048276e-02
-2.648531666688014319e-02
-2.476482326431217462e-02
-2.301810337590659561e-02
-1.762377636172185458e-02
-1.829033121542555929e-02
-2.298003013202365441e-02
-2.061372034602082515e-02
-3.158551595613945384e-02
-3.295378580217844799e-02
-3.666350365720549842e-02
-3.261018561921624759e-02
-3.534944207699208807e-02
-3.148916635572474032e-02
-3.084799318953890257e-02
-2.863759002247145968e-02
-2.908857568775680136e-02
-2.557072655796144289e-02
-2.783254926403111451e-02
-2.280628867556122596e-02
-2.322235521810056547e-02
-2.192754377765249174e-02
-2.085660454401894182e-02
-2.367459149823836206e-02
-2.457175199158723178e-02
-3.263078389175144700e-02
-3.271153116601144273e-02
-3.232394743117739111e-02
-3.354962522765025934e-02
-2.727076827343599685e-02
-2.688309473551075968e-02
-2.413145507271707846e-02
-2.446932204487672902e-02
-2.309853859254273889e-02
-1.968783661718509492e-02
-2.162726304012918543e-02
-2.605882350852184448e-02
-2.386636848389878107e-02
-1.962758713351930862e-02
-2.190145851742342220e-02
-2.099777033409744309e-02
-1.945001642775279205e-02
-1.105643863891980772e-02
-1.568853615744425500e-02
-7.414061872397903485e-03
-4.984658826954646571e-03
-9.523172597767359804e-04
-1.268213804688445023e-03
9.763578515580295658e-04
-2.944482714161478221e-03
-2.645437623865598553e-03
2.423726387704938645e-03
-5.513838225541412008e-03
-7.704426097955741071e-03
-1.130103269538418331e-02
-1.285157193952934929e-02
-1.470627215468478521e-02
-1.954773307811463745e-02
-2.251792612931857729e-02
-2.026306858798698762e-02
-2.348903218912168356e-02
-1.609993304666101910e-02
-1.787250339651136333e-02
-2.187056534610509750e-02
-1.616578278792690782e-02
-1.388741756207367839e-02
-1.487030978752512667e-02
-1.174339638140897701e-02
-1.528041064296947749e-02
-2.400982523175554384e-03
-3.407803128801178971e-03
-4.570163297841878247e-03
-8.114404736953240160e-03
-9.694818676037386673e-03
-9.882303936267100575e-03
-9.755469313320164204e-03
-1.124917281079829134e-02
-8.729098695957060450e-03
-1.365506122105797360e-02
-1.554866522814901675e-02
-1.143212894479439523e-02
-1.263856194478651940e-02
-1.671523065260727137e-02
-1.512415244325526764e-02
-1.368877670941737179e-02
-1.079730399885514558e-02
-1.318373248914406215e-02
-3.777126181504719682e-03
8.085102625140505594e-04
5.933809553055002795e-03
7.683892577130979618e-03
1.550387242154926959e-02
1.389370548340929101e-02
1.550559822547259436e-02
2.018455760148907263e-02
2.273388861008163175e-02
2.340052402473813409e-02
2.251516475131221107e-02
2.400149768175330323e-02
2.503493853239202593e-02
3.102924707808851768e-02
3.026647500096679710e-02
2.666668931727400604e-02
3.545303472050886917e-02
3.227141513794462568e-02
3.897498253545594871e-02
4.147789200230822537e-02
4.320821963217746919e-02
4.764277911202230431e-02
4.065299137552325082e-02
4.645531485742715461e-02
5.160806990518840287e-02
5.920756096559254278e-02
6.411545159933507154e-02
6.896943272045308326e-02
6.884188472237096068e-02
7.584461727780800189e-02
7.511951059097010663e-02
8.197920312615925020e-02
8.136800907971564190e-02
8.364871223637193598e-02
9.028459314373638023e-02
8.190599087848782212e-02
8.324988709813252452e-02
8.397266550874415980e-02
8.488445524279364385e-02
8.173735792803304978e-02
8.250320292157597990e-02
8.872733301747448564e-02
9.471991900264897790e-02
9.845548347209676088e-02
9.620204425562750572e-02
1.010916515830008189e-01
1.000721187484882035e-01
1.072711341277827746e-01
1.132578242671986590e-01
1.090666085413285469e-01
1.188493363364684363e-01
1.198759429006958088e-01
1.231120009574768748e-01
1.217344409001479555e-01
1.269490825688170954e-01
1.337255408105585408e-01
1.338422358239897969e-01
1.394484369887949438e-01
1.424308149841502225e-01
1.474648081600112848e-01
1.510427183077136526e-01
1.482857747617374322e-01
1.489150565857771946e-01
1.437473221168987791e-01
1.483086290652604333e-01
1.441694087213651887e-01
1.519468526695495481e-01
1.489883646426416464e-01
1.430777451859622795e-01
1.416016878422556857e-01
1.455650971061157595e-01
1.491589545415903384e-01
1.544520560435164169e-01
1.505387927998965703e-01
1.497754708946013036e-01
1.524565201443645046e-01
1.566942947575170608e-01
1.585602303805826452e-01
1.498179391637831648e-01
1.523145682350158792e-01
1.472553937002094582e-01
1.534944782051921308e-01
1.483774194352084352e-01
1.534087480673539394e-01
1.458108212305758711e-01
1.494952137251220892e-01
1.376836633259937992e-01
1.421465363532739001e-01
1.443350646803395199e-01
1.484142528490565160e-01
1.435143399486529248e-01
1.452065733118520496e-01
1.439613515507983665e-01
1.454803260842035817e-01
1.468861805692401878e-01
1.468502735694852124e-01
1.400025904052835113e-01
1.420224639317629878e-01
1.394084425789098303e-01
1.353313319158107042e-01
1.308519991025887119e-01
1.278916083215059230e-01
1.257244211726182836e-01
1.243699038687329228e-01
1.273004671059609905e-01
1.178043665380037464e-01
1.170112631001231085e-01
1.179121032358333432e-01
1.156539873695958676e-01
1.095477351576342739e-01
1.117506237378136369e-01
1.098613630398391772e-01
1.053895871063985634e-01
1.048481975339192740e-01
9.768274513631547418e-02
9.891572872729237353e-02
9.572329759235609359e-02
9.218157485804678863e-02
9.171631676420199941e-02
8.221125353350666742e-02
8.243999752390895885e-02
7.934117029772702612e-02
7.784798886743959923e-02
8.216862266081115251e-02
7.420711080252562208e-02
7.588648222470018023e-02
7.592491447481131139e-02
7.284519221788832155e-02
7.192021527657743718e-02
6.748215252709444112e-02
6.285656955888052622e-02
6.054697857931035099e-02
6.168134442674044760e-02
6.194702222479564480e-02
5.963763855275805437e-02
5.527428145525237202e-02
4.799000803408270954e-02
4.998158926392204382e-02
4.768387526349548988e-02
4.406041769817348186e-02
4.721118727152673333e-02
4.390101690922298960e-02
4.809216100784408088e-02
4.020389185517225794e-02
3.872333896820134846e-02
4.062509844354300625e-02
3.552708428264905738e-02
3.171317713045884723e-02
2.972130497253355763e-02
2.808272744464246351e-02
2.446580808684406527e-02
2.498085226988133734e-02
2.493513118846890642e-02
2.163397957914225955e-02
1.247789204881688541e-02
1.891523911326087326e-02
1.556957335652853214e-02
1.454476140814198182e-02
1.766496949020546214e-02
1.970574733175789461e-02
2.004437511378598380e-02
1.514376180433163466e-02
1.135596978290609460e-02
7.881049821414132239e-03
7.601959523533596830e-03
9.021108417195611295e-03
4.061165102312802588e-03
3.464016060283237053e-03
2.375885693842283430e-03
1.780393486535247760e-03
1.766403130553095835e-03
-4.315475257194445469e-03
-6.978741183300773976e-03
-1.309200568453627866e-03
-7.699531153256833349e-03
-4.992601050150313746e-03
-4.478668860431245236e-03
-2.458528069722465403e-03
1.494629142507308828e-03
5.228659105541710872e-03
4.488829536346994331e-03
6.180793892397562495e-03
1.395293245580775388e-02
1.084052437324189988e-02
1.340768120517643602e-02
1.851613951901120991e-02
1.417001712263554758e-02
1.929399568830314493e-02
2.247992390007713670e-02
2.248215561065791679e-02
2.488059288533761571e-02
2.154063384929083558e-02
2.135206459152771963e-02
2.211248199898996347e-02
3.105055725556193913e-02
2.720600137305417832e-02
1.767754272406840688e-02
2.200063252178319217e-02
1.838453089672797969e-02
2.031973347511661920e-02
1.839578802885544206e-02
1.951618405736066375e-02
1.642795862723767097e-02
2.292472807274958946e-02
1.738538861176086581e-02
1.556703587951624446e-02
1.434608216651800383e-02
1.624881154079149681e-02
1.325354774219411613e-02
1.932743175086226728e-02
1.479580167156724357e-02
2.010161733537407791e-02
2.173769832747352027e-02
2.330172986316914052e-02
3.211277088030284332e-02
3.021720452787979294e-02
2.637027610800291022e-02
2.550834779102040262e-02
1.827006660716212760e-02
1.966842118631106917e-02
1.520613294194850251e-02
1.269215823760427853e-02
1.199241829245201174e-02
1.675699590164003716e-02
1.815296200177463071e-02
1.695872224063399436e-02
9.914517607419903733e-03
9.842135464369849984e-03
9.214170981332925336e-03
8.901867312165023804e-03
1.226760839745966170e-02
9.550260642635532982e-03
1.133065092256568818e-02
6.230335658469088322e-03
3.972190715338719258e-03
2.346660487908103221e-03
9.711300748802997873e-03
6.777845316464414793e-03
9.599342497003671149e-03
9.601408266150635029e-03
9.220302588277995426e-03
1.466956079126569001e-02
1.181461909097758500e-02
1.442533124982436910e-02
1.565311887538667346e-02
1.289655890380980718e-02
1.163926303600770762e-02
1.671799285847019867e-02
1.036555556200124961e-02
1.340318685966623846e-02
1.234522733407839024e-02
1.085838351286350090e-02
1.064851344752693052e-02
1.601290875804595171e-02
5.196180905953418083e-03
1.048748439530799992e-02
3.876365799042713611e-03
3.973216894855746695e-03
4.929632333750766371e-03
1.782704649082589299e-03
3.876577515952162045e-03
5.874599337827524081e-03
6.128926039481452648e-03
8.636567451551946384e-03
3.581351495381190908e-03
5.889505537614025954e-03
9.297123143206409424e-03
6.256815351436406658e-03
9.462210190008035759e-03
6.621379901263546586e-03
8.452551604410718511e-03
1.339854886703395476e-02
1.181733866122725018e-02
1.107429147085003951e-02
1.527643126261757356e-02
1.519447681654084725e-02
1.495476915402549345e-02
9.293574893827427630e-03
6.966305321143395624e-03
7.756810996048968398e-03
1.093780641398234277e-02
1.965813739413846406e-03
-2.121335145581104697e-03
-5.696780900765530120e-03
-4.981676680609559149e-03
-9.470314164683468761e-04
-1.171533396052470977e-03
-1.067557560469067912e-02
-8.633689384338394390e-03
-6.759084314023611206e-03
-1.019384430077763248e-02
-1.153787008830808869e-02
-1.447680882719371009e-02
-1.493837053624580413e-02
-1.515407353984565830e-02
-1.580117470412434333e-02
-1.722349295517766610e-02
-1.212461359473782085e-02
-1.020779785608805224e-02
-1.011080201076497431e-02
-1.294327329511646418e-02
-9.937772512224274379e-03
-1.013225300909081916e-03
4.370103274944359129e-04
4.245735020738217180e-03
3.743364032268381436e-03
-2.135983572225885752e-03
3.437152675962451553e-04
-1.707291106023633986e-03
-6.091331618541806492e-03
-7.406914625723626244e-03
-8.574601182728791571e-03
-1.015266688596239142e-02
-8.714685049609038892e-03
-1.295767787311563612e-02
-1.282948022839469626e-02
-1.008835449551281904e-02
-1.279286162010861982e-02
-1.829343024230689618e-02
-1.228819009688941755e-02
-1.354463404726202747e-02
-1.570313925192878823e-02
-1.869288605704211292e-02
-1.992029324089095166e-02
-1.910827584805674384e-02
-2.512761721697254202e-02
-1.716960794881838837e-02
-1.485689893307806653e-02
-1.888473727429484939e-02
-2.054894951470420672e-02
-2.450446328003097474e-02
-2.493877163825863885e-02
-1.528181678282714007e-02
-1.556530455734217444e-02
-1.163696129014835101e-02
-1.424707619463794206e-02
-1.547139816277964819e-02
-1.142540575861505925e-02
-1.137204506538369575e-02
-1.752568859876657559e-02
-1.890096797955587160e-02
-1.379493351214067243e-02
-1.762770511451117184e-02
-1.533051505856330987e-02
-1.277083086679242641e-02
-1.196666577020322197e-02
-1.420403636252021151e-02
-1.698716477671202707e-02
-1.331147594106651955e-02
-9.669458789842599877e-03
-1.210989833203335309e-03
5.158765985923796649e-03
-4.347301559824878758e-03
6.613524561178696359e-04
4.492809854424906213e-03
4.072926538771892702e-03
1.155214215217692519e-03
-1.670976660168688177e-03
9.435945899733955144e-04
-1.060611237965414233e-03
2.161576294439693235e-03
5.474142128335857116e-03
2.292035310736295628e-03
-6.423331530405640422e-03
-1.056877822567503511e-02
-9.822047629039265537e-03
-1.680034854368994690e-02
-1.417920613193979218e-02
-1.780239813398731830e-02
-1.642000690632428039e-02
-1.652942008267932472e-02
-1.495870363176809992e-02
-1.980268547797425782e-02
-2.051109096580994162e-02
-1.544178760558745367e-02
-1.290183665673338975e-02
-1.545265045923194247e-02
-1.609960402400845147e-02
-2.145404380442161862e-02
-1.318730449056637610e-02
-1.601530266949979797e-02
-1.213250992883230239e-02
-1.712792501496285258e-02
-1.638666952680267741e-02
-1.197163302212955749e-02
-8.308415546614100755e-03
-7.760957854338612627e-03
-9.264443661805121799e-03
-9.747740487713429935e-03
-5.643897294501099005e-03
-7.701400257972057517e-03
-9.706652136739712944e-03
-1.490974717217818935e-02
-2.087439180692352014e-02
-2.681008568773712852e-02
-2.530814539438541733e-02
-2.421533735670888809e-02
-2.432320723787884109e-02
-2.548714960716247369e-02
-2.902833619122580089e-02
-2.206592476137458902e-02
-2.105339883693568837e-02
-2.493866052472437644e-02
-2.226894291652747881e-02
-2.163288694417286884e-02
-2.400152298367208559e-02
-2.256359579357214429e-02
-2.312856413218866702e-02
-2.259604969044270995e-02
-2.997482309554122537e-02
-2.966364347835159787e-02
-2.696337791384406657e-02
-2.527494912382122205e-02
-3.369090985995026877e-02
-3.006876258308066596e-02
-3.089499414071295025e-02
-3.036113596952139115e-02
-3.306937539937560011e-02
-3.168852925145970723e-02
-3.650278896255876315e-02
-3.472912577886488883e-02
-3.624474547276790304e-02
-3.442525191443868149e-02
-3.225623707872682377e-02
-3.129267188962003843e-02
-3.394703531229958937e-02
-3.725623139867428879e-02
-3.900496055387225880e-02
-4.373425342599379650e-02
-4.260041109928924818e-02
-3.231380568739206094e-02
-2.936113598395218016e-02
-2.971273599776180774e-02
-2.407495631140132986e-02
-2.202401951857735352e-02
-2.573177959083705613e-02
-2.576483844697119441e-02
-2.703201897052753822e-02
-2.121209852605843160e-02
-2.159344560484144360e-02
-2.180003057164137115e-02
-1.973500695438978880e-02
-1.879796458630500489e-02
-2.220699327180630789e-02
-2.552460633077546781e-02
-2.153962511701779103e-02
-2.029176733101012431e-02
-1.718525747804766635e-02
-1.555149246200460134e-02
-1.830832539010107674e-02
-1.695051793116753025e-02
-1.342167482319756022e-02
-1.762735490780276137e-02
-1.675240350029116865e-02
-1.754558406981321372e-02
-1.690825456224287482e-02
-1.744925666263863473e-02
-1.814275828686251479e-02
-1.619105802515874437e-02
-1.481329033827627484e-02
-1.399804748118427256e-02
-2.151363165205011363e-02
-2.473649236443808963e-02
-2.646262242886010529e-02
-2.434410791243091232e-02
-3.081425351765110232e-02
-2.345026085004153771e-02
-3.334524757878698509e-02
-2.637853247336419127e-02
-2.622944784036262966e-02
-2.771727907315124639e-02
-3.145162686682634323e-02
-2.619469866729673413e-02
-2.474319740581643057e-02
-2.835658033436738723e-02
-2.810168439857652078e-02
-2.427412497535585967e-02
-2.921705355725245923e-02
-3.831383312778469108e-02
-3.640742299681132277e-02
-3.277477018655106100e-02
-2.805393491767371739e-02
-2.527912377520435960e-02
-2.878144117521397316e-02
-2.920848866319813997e-02
-2.878696533388891421e-02
-3.143778572800570714e-02
-3.235498923098012458e-02
-3.307735886705909234e-02
-2.770530636351120624e-02
-3.480253069993688442e-02
-3.595775517451371694e-02
-3.710552851352433290e-02
-3.758801175855341903e-02
-4.195147727239700863e-02
-4.458392864080851226e-02
-4.003708669810490672e-02
-3.915750565232090086e-02
-3.818172646288631178e-02
-3.372555227760543062e-02
-3.381556360301507524e-02
-3.061944141769501471e-02
-3.471489691883833384e-02
-2.698532756677840538e-02
-3.259292527146551155e-02
-2.836275458715664666e-02
-2.461633207353786101e-02
-2.669229221894775517e-02
-3.441309921931001714e-02
-3.158666941030241482e-02
-2.671371994779081493e-02
-3.029641182839959423e-02
-2.873610129300596672e-02
-3.363556536984413370e-02
-3.480999312852139926e-02
-4.157323069660723291e-02
-4.343869251832488398e-02
-4.841528347281026656e-02
-5.127726474637489540e-02
-4.954204197276862454e-02
-4.831076117185517660e-02
-5.249541531054247034e-02
-4.733214808893970726e-02
-5.024670551623233727e-02
-5.051549961819656875e-02
-5.844385944642427333e-02
-5.397135071016645469e-02
-5.148499876323431312e-02
-4.591696040201398432e-02
-4.091162355334043710e-02
-3.926079942947258150e-02
-4.498532853588010916e-02
-4.329703661359762812e-02
-4.660920252993605573e-02
-4.757935856448625156e-02
-4.697392394235544444e-02
-4.276781560833253781e-02
-3.991522607843889237e-02
-3.763788194209327642e-02
-3.165145556820259110e-02
-3.776489094722801365e-02
-2.753403785773600454e-02
-1.941438089917868481e-02
-2.076966350563591579e-02
-1.722485642094861991e-02
-2.221485942403389480e-02
-2.296215762417885831e-02
-2.207176097663010594e-02
-2.590376346839529109e-02
-2.117493205755716090e-02
-2.433295737412821680e-02
-1.772435738639599467e-02
-2.237326204149669984e-02
-1.228310592190418049e-02
-1.129201694894810259e-02
-9.483788835367157333e-03
-1.092236299260795906e-02
-1.633606332496873037e-03
2.668951569796185197e-03
4.963317463554051123e-03
8.297368437131136254e-03
4.162150217094429117e-03
3.332072570548572088e-03
1.296774372070941261e-02
1.384820272650699735e-02
1.490779529309094187e-02
1.278591549390928339e-02
1.982021910628373185e-02
2.276997887284504252e-02
1.781277578204409906e-02
1.363124967057038894e-02
2.677017438782658409e-02
3.415551994139143233e-02
3.949049033984142199e-02
4.727294258084679957e-02
4.736593520822374170e-02
5.029909973532242784e-02
4.520213720331922591e-02
4.524475274089945209e-02
4.235500749239129448e-02
3.556387202099875466e-02
2.951661685028450499e-02
2.270964312741141633e-02
1.679805585949001312e-02
1.694821253627354363e-02
2.041163924280786635e-02
1.957583859068168231e-02
1.303213214438603273e-02
7.281004475612418148e-03
3.807685993300724547e-03
1.121111958524734220e-02
4.785471057905610337e-03
6.319541756840907354e-03
5.741012319268157249e-03
3.774061023684160965e-03
5.526527213815968231e-03
-1.007572263728939710e-03
-1.966634307030257212e-03
-4.833248329425665624e-03
-1.045921757116174966e-02
-1.201071418636667776e-02
-2.209450891898423475e-02
-2.069954783734084813e-02
-3.147554542533315125e-02
-3.996604450114527030e-02
-3.588401506507676864e-02
-3.899614222039582412e-02
-3.326206351456006960e-02
-3.037548524035127429e-02
-2.757221977759050091e-02
-3.219976653893585894e-02
-4.294275133538172362e-02
-3.484638732976907960e-02
-4.580784195838938366e-02
-4.291535020854264637e-02
-4.400318461472318976e-02
-4.297049370720573691e-02
-3.765487554559077132e-02
-4.043510463204813554e-02
-3.824918696139367746e-02
-3.775201079989054520e-02
-4.109865523550104704e-02
-3.546717439206137357e-02
-4.032136397691410412e-02
-3.703301396833869052e-02
-4.059428065528347673e-02
-4.141443359286844927e-02
-4.159628400992054775e-02
-4.531938613922337211e-02
-4.174702498539240025e-02
-4.955352856766714886e-02
-5.233600659751602713e-02
-5.481639567598795004e-02
-5.666286067253589742e-02
-5.763985861716425241e-02
-5.539516677207045880e-02
-5.484898227665480075e-02
-5.148558665315899896e-02
-4.966460501299768682e-02
-4.804358477412745687e-02
-5.150601320451436704e-02
-4.808557892182896421e-02
-5.073854786349341062e-02
-4.752213213549505433e-02
-4.320188972147354090e-02
-4.570440243127271707e-02
-4.188780578359552198e-02
-4.618786207285796586e-02
-4.120420003029867662e-02
-4.282835712066301870e-02
-4.315987457278902539e-02
-4.784407743664609303e-02
-4.943316103852579690e-02
-5.703539719915373674e-02
-5.759200680040488241e-02
-6.503279533597261519e-02
-6.306540431016849357e-02
-6.715643531070464300e-02
-7.008416349067170259e-02
-6.651054820543844670e-02
-6.727224208643106662e-02
-6.203369138136832772e-02
-5.318291527191953971e-02
-4.738054740389041619e-02
-3.885719831722822537e-02
-4.183816608404966608e-02
-4.167084842834190006e-02
-3.572938984026807763e-02
-3.654145684065213118e-02
-3.621871424764222525e-02
-3.386101353816395321e-02
-3.917543885618313126e-02
-4.736751542325245978e-02
-5.669617817681305016e-02
-6.041279941814781118e-02
-6.153403508530741473e-02
-7.220281547349083340e-02
-8.247692101073561544e-02
-9.334246129796919256e-02
-1.071483648886767948e-01
-1.169976829435592780e-01
-1.304024552494929545e-01
-1.402216510740597055e-01
-1.384470420557727399e-01
-1.346713327370467894e-01
-1.372574469227727523e-01
-1.442441108701346120e-01
-1.480668548868951939e-01
-1.509436430367497861e-01
-1.539417662732173731e-01
-1.581819858347088825e-01
-1.560313927586496341e-01
-1.464392940854579717e-01
-1.269851267341686185e-01
-1.139455085984971694e-01
-9.171326521423367462e-02
-6.023852918430672165e-02
-2.438155403933561782e-02
2.788930313569881747e-02
9.314081670467311280e-02
1.672291879417706628e-01
2.263342068359379677e-01
2.979790846664241988e-01
3.510939147167700947e-01
4.043480757288292482e-01
4.510399146851095109e-01
5.177913773724018842e-01
5.754920020348215370e-01
6.413322725456056528e-01
6.862572283723959998e-01
7.178842124705383521e-01
7.442623376108057354e-01
7.744405578107760313e-01
7.958890712734462136e-01
8.109985686833888208e-01
7.811495215744596043e-01
7.869666467482285821e-01
7.868421217907076715e-01
7.755359347924165592e-01
7.151442576036424192e-01
6.371358982536794446e-01
5.627205277344806689e-01
4.899939345260797552e-01
3.942437989383978936e-01
3.002146687909337253e-01
2.237338171045175628e-01
1.616768153192063018e-01
1.073927645144286958e-01
4.669860504330081152e-02
9.215582497968943798e-04
-3.383584438657039062e-02
-6.151815514735203827e-02
-7.175209246023361853e-02
-9.664736159401743354e-02
-1.199296478748911321e-01
-1.321713412800941123e-01
-1.428592254951256413e-01
-1.542163609717654982e-01
-1.637507948032530525e-01
-1.590206565630545299e-01
-1.550674099518819515e-01
-1.462656062189229278e-01
-1.373695886787060783e-01
-1.201717564767215141e-01
-1.024664605237043946e-01
-9.871537176336064867e-02
-7.951903969201168376e-02
-7.167364377139662235e-02
-6.554457872292906995e-02
-6.609142826950387128e-02
-6.028867541087157278e-02
-6.273068712328633278e-02
-6.832022304918849986e-02
-8.301910930698319646e-02
-8.488784093573076284e-02
-9.093916852005623497e-02
-8.616175869189524050e-02
-8.461013643044196231e-02
-8.816271333282310607e-02
-9.192484196481731651e-02
-8.566278921155900949e-02
-9.152267854950368875e-02
-8.236114766156504841e-02
-7.835453908480904950e-02
-7.021837510503925461e-02
-6.955138509085811993e-02
-6.780795838932829334e-02
-6.223002204571659313e-02
-6.067743757674315397e-02
-6.137513180702625082e-02
-6.176905558218726000e-02
-6.558255547687741327e-02
-7.143820099727038464e-02
-7.745906759389165064e-02
-8.245864118274953691e-02
-8.013972030135912972e-02
-8.053969681918171641e-02
-8.297339642700640727e-02
-8.725030403416367264e-02
-7.981141770450317363e-02
-8.112165146122302106e-02
-7.462470510442997806e-02
-6.828254068903283347e-02
-7.006720943696209680e-02
-6.968290791173537002e-02
-6.346840553469423885e-02
-6.518056994829524164e-02
-7.166813106023239843e-02
-6.618327532367096477e-02
-6.857075899296860566e-02
-6.909130019475318019e-02
-7.184014076984590602e-02
-6.723136777556915078e-02
-6.874642352376825194e-02
-6.781784306144644781e-02
-6.597602409200609141e-02
-7.267577875103892193e-02
-7.121117812738297914e-02
-6.837402401155551201e-02
-7.499435589191205676e-02
-6.936092852002895270e-02
-7.318906120548990257e-02
-7.049502587308048573e-02
-6.651837454564557550e-02
-6.282499562986620933e-02
-6.337601662074021647e-02
-6.347906422379023805e-02
-5.440836843271268375e-02
-6.016921427789634347e-02
-5.367899447228630105e-02
-5.261515480352396690e-02
-5.885024717116782433e-02
-5.210758084589606209e-02
-5.472888657492425146e-02
-6.247880382269477284e-02
-5.927422854893066306e-02
-5.915020768813722407e-02
-7.101765017991223949e-02
-7.286418835110963776e-02
-7.254706078431399918e-02
-6.999219103782128304e-02
-6.869477161948256416e-02
-6.386079350927997833e-02
-6.348504999212156719e-02
-6.659957052847131909e-02
-6.483677280750477223e-02
-6.092768777712576078e-02
-6.612259324332836474e-02
-6.142337661055397025e-02
-6.242944400560834772e-02
-6.729084866160106593e-02
-6.675875408348119766e-02
-6.885909349768881693e-02
-5.843898622836873891e-02
-5.756295277368073116e-02
-5.673588631592230147e-02
-5.686179089266918396e-02
-4.831734285546174235e-02
-5.832987678590029201e-02
-5.154540840146004665e-02
-4.495041351398382234e-02
-4.555146121384878732e-02
-4.688915055677234101e-02
-4.134674564885454373e-02
-3.741518736914983823e-02
-3.519712570359001536e-02
-3.749769693512572388e-02
-4.524024062507348010e-02
-5.127888467526564575e-02
-5.095739478652927534e-02
-4.400875128707626427e-02
-4.422766271470002231e-02
-4.367676056804270512e-02
-4.353656260455007754e-02
-3.608108432394363518e-02
-3.507625777761358421e-02
-3.761867450842315552e-02
-3.829394074918834878e-02
-3.403725126575840587e-02
-3.351701892998015797e-02
-3.386316464094518697e-02
-2.830907928402670581e-02
-2.976610031483561958e-02
-3.084102260495535930e-02
-3.635538146226280354e-02
-3.359933472442133695e-02
-3.712636728291440757e-02
-3.020888529787724153e-02
-3.452364546216057928e-02
-3.286005689764492921e-02
-2.623080747153994086e-02
-1.568223465929241556e-02
-1.303676118401064787e-02
-1.044526468633499849e-02
-3.667436720164563013e-03
-6.074754585698727283e-03
-1.271203096404605049e-04
-2.440209475089161195e-03
-1.541759873069370457e-04
-6.559829670130912227e-03
-5.807325477791502877e-03
-3.697324475140262301e-03
-5.770898580875538642e-03
-9.020750865250892758e-03
-3.099245554680551962e-03
-4.444389614276511580e-03
-6.376995942925622884e-03
-2.818650438501379973e-03
8.987315506890913852e-04
4.401259656320100078e-03
6.462607452702218147e-03
1.129124233909295505e-02
1.145608762105754241e-02
1.441575663380079142e-02
1.561571414975371219e-02
1.818532983423237770e-02
2.197684877990579988e-02
2.187887287935630365e-02
3.271965553837019591e-02
3.479930659265895176e-02
3.109284938192302672e-02
3.254455453428806155e-02
3.565499180228903775e-02
3.455217299299695455e-02
3.267372975937676838e-02
3.901519192228630750e-02
4.839919739516984620e-02
3.820715615604564075e-02
4.228813102424067161e-02
4.114144592300017500e-02
3.995837842244565064e-02
4.258508665904614521e-02
4.548987409150873074e-02
4.781509018095986274e-02
4.682436580419713223e-02
4.832757251638708507e-02
5.851991211190499254e-02
6.092835095586901506e-02
6.484227404862796806e-02
7.562886395217427449e-02
7.317406593974784546e-02
8.299198717845235329e-02
8.222600716923611497e-02
8.911232657904100130e-02
9.482750090927805076e-02
8.901930187688511520e-02
9.124834686553751073e-02
9.384667833714610552e-02
9.967495375071200314e-02
1.046027724688471938e-01
1.024027525615107681e-01
1.102861410828445132e-01
1.086139624541518911e-01
1.120237846539978710e-01
1.182330019745082561e-01
1.141558938647299071e-01
1.086116245224926224e-01
1.096445477896026421e-01
1.065892869311730884e-01
1.038949413599037364e-01
1.042913739623028135e-01
1.042932270703866848e-01
1.049102565039107260e-01
1.051885474848156532e-01
1.107532356686316000e-01
1.035891068267877912e-01
1.096545975932792238e-01
1.139395810685807087e-01
1.140237724092326710e-01
1.136243108502396071e-01
1.137280060224271638e-01
1.165079896047095387e-01
1.163563165842012026e-01
1.111714366463749659e-01
1.149228476888959349e-01
1.178310318864278505e-01
1.188013622252387380e-01
1.230208541358251972e-01
1.152736975649063522e-01
1.192800900848463019e-01
1.242813049792673707e-01
1.217846499740148358e-01
1.232556605658935434e-01
1.229069015368267070e-01
1.233384981045572149e-01
1.218993372685890364e-01
1.178812222735887705e-01
1.187732380444191937e-01
1.216309283955800957e-01
1.158676678134306082e-01
1.148148417087933026e-01
1.092381001732880552e-01
1.076800612234743992e-01
1.055489673189861088e-01
9.952385687329212693e-02
9.957174454315020906e-02
9.514839238038441671e-02
9.089591744257963235e-02
9.304291402408149114e-02
8.605637192311854644e-02
8.534030010098470065e-02
8.191537801595516477e-02
7.396407915113567544e-02
7.229251018906324155e-02
6.718281169373740980e-02
7.261194553020633435e-02
7.142697852992885288e-02
7.599229467877988142e-02
6.385732593227222420e-02
6.688827549705500530e-02
5.914727682471254688e-02
5.149059509701414683e-02
4.964861455313129834e-02
4.771137345106712946e-02
4.119912140429515812e-02
3.859659349641619830e-02
3.657853494353624502e-02
3.790219793165117146e-02
3.113857228189920168e-02
3.255798279851485066e-02
2.669782805956888438e-02
2.174203207668479187e-02
2.358789201568101124e-02
2.158093808404359937e-02
2.098033397214582596e-02
2.163854640455331602e-02
1.725247561829779119e-02
1.857887781807809890e-02
1.810778128307211077e-02
1.459049889277796996e-02
1.912779214097470870e-02
1.618141061452360585e-02
1.019182680411734321e-02
8.915842086211434037e-03
7.200127818389745471e-03
7.980369312556079286e-03
3.701531776601485468e-03
1.851774614200940583e-03
3.224376615837964977e-04
-5.926669484792146392e-03
-6.339570588474563451e-03
3.114124480250168858e-04
-4.491603583947956224e-03
-1.047076262436863470e-02
-1.278274338527185527e-02
-9.492485942115602704e-03
-1.031033769549738466e-02
-1.833575827168543171e-02
-1.968980496473837771e-02
-1.805087024594131950e-02
-2.094042668536144625e-02
-2.052842665655452148e-02
-1.967649788928427235e-02
-2.538210168430188318e-02
-2.438814910244835321e-02
-2.853946427162490362e-02
-2.780467326667568351e-02
-2.753416543050901666e-02
-2.597313790756849983e-02
-2.389075987249755784e-02
-2.618389798905074173e-02
-2.469442732780557925e-02
-1.816187210685682452e-02
-1.580909060900281826e-02
-1.857780544489529007e-02
-2.207891365520175952e-02
-2.368252698599915274e-02
-3.117406101474606839e-02
-3.126776313985935030e-02
-2.804538294882752414e-02
-3.170500944045251401e-02
-3.142405061685016321e-02
-3.787883214869480764e-02
-3.343450593182495378e-02
-3.320879163916135024e-02
-3.095118438302857378e-02
-2.346262120177022847e-02
-2.562734149354739532e-02
-1.769241193438297888e-02
-1.751213529979911421e-02
-1.815572648229724084e-02
-1.851888070529883468e-02
-2.439521660410337578e-02
-2.138300201468323891e-02
-2.583315544985698153e-02
-2.573594702575510151e-02
-3.214901187111629532e-02
-2.559458227220778870e-02
-1.832335857685107872e-02
-2.181528643081054319e-02
-2.135731559139686375e-02
-1.622384507506036133e-02
-2.694315016629644788e-03
-5.396955633498290439e-03
-7.056450854597162703e-03
-8.710791916375804078e-03
-1.365770189997794759e-02
-1.359615075555442587e-02
-1.422553847157059792e-02
-1.153227247091648255e-02
-1.050013229622992483e-02
-1.820326991513820936e-02
-1.186828424515962155e-02
-2.094261347169956711e-02
-1.557827603158623564e-02
-1.727717867945133268e-02
-1.494483655446132708e-02
-1.127126873537032115e-02
-1.124801401286268376e-02
-1.328324622134946509e-02
-6.429513727896352115e-03
-3.964319664393034515e-03
-7.797501207704282677e-03
-8.942010227499963548e-03
-8.146049439711200435e-03
-4.284002216597970758e-03
-7.421169575527297724e-03
-4.626097039229670749e-03
-4.088623165178217889e-03
-5.020210252368206838e-03
-1.274643692404375805e-03
1.418724641136459574e-03
-1.204062079588341660e-04
1.371847084977728670e-03
-2.326083748376062132e-03
-4.518161442835233466e-03
-2.089163361573720401e-03
-2.231859709861838681e-03
-2.925113235403564715e-03
-3.118633338801246602e-03
-2.553727808734196358e-03
-3.751394413148090301e-03
-7.342281866943300983e-04
-1.398096185768915589e-03
1.200049074207121258e-03
-1.050554992885532890e-03
-1.644339418356954852e-03
-3.622803761038295711e-03
-4.664014748394951226e-03
-2.391497575343071169e-03
-5.044821124577492100e-03
-6.727855193594756145e-03
-3.997240841371096920e-03
-7.124693019122219084e-03
-4.379218140481810906e-03
-4.770694245756823548e-03
1.076246187056817405e-03
-1.807670377353298719e-03
-5.419944334726700674e-03
-2.354248023006544344e-05
4.768260146394975862e-04
-2.194463707859362067e-03
4.462576458268863178e-03
1.319401830731758984e-03
4.965438824010570684e-04
9.157836906796834597e-04
-1.124584078726509340e-03
-3.478805224568004562e-03
-7.590120252500276443e-03
-6.637263888087940877e-03
-4.551885436924973938e-03
-2.701158313201834638e-03
-2.006590296619648051e-03
-1.946233923835527513e-03
-3.053271413508307219e-03
9.002383471965469397e-04
-3.459459339519410648e-03
-7.842036666817375767e-03
-1.079451911775619610e-02
-4.598425189573873695e-03
-6.866166411838792172e-03
-1.020392045014284488e-02
-1.688597096950483767e-02
-1.472752589271975054e-02
-1.588281379104183877e-02
-1.501690982781256345e-02
-1.820969074677170063e-02
-1.845741448913340577e-02
-2.491542347720276940e-02
-1.569285823464827700e-02
-1.423484973051569735e-02
-1.467498875456352270e-02
-1.611276157330121528e-02
-2.094860539633969232e-02
-1.756554007076516211e-02
-1.805240480887304599e-02
-2.526704759071685125e-02
-2.828755558240181323e-02
-3.110769394554613321e-02
-2.622760048606376238e-02
-2.919068638340793775e-02
-2.879827932477319052e-02
-2.826180817937429257e-02
-2.767226287745827573e-02
-2.880753646526279521e-02
-2.709629479712039046e-02
-2.481376591035377999e-02
-2.879222834728978331e-02
-2.815697702490627119e-02
-2.362186170700775190e-02
-2.589883633985667899e-02
-2.196670833670233414e-02
-1.706072995203611331e-02
-1.164048525183769556e-02
-1.584009594420165978e-02
-1.367230079354420091e-02
-1.531462592367960340e-02
-1.545061805802605548e-02
-1.242296569826506492e-02
-1.079312388416453494e-02
-1.153742615344599542e-02
-1.157817253823123504e-02
-8.506776173182850620e-03
-1.329453077333897504e-02
-1.639384063255666657e-02
-1.505330962891904267e-02
-1.432295032586505812e-02
-2.100463621529402580e-02
-1.958028209538276165e-02
-2.119676044330864872e-02
-2.413642170204161053e-02
-2.844625501433384329e-02
-2.957794194561169654e-02
-2.136264301722001768e-02
-2.135015309248033955e-02
-1.806433310468524844e-02
-1.996527537997205837e-02
-2.320247699506683414e-02
-2.280250157733432204e-02
-2.248000896731949805e-02
-2.214465479017135863e-02
-2.483111075678057222e-02
-2.351892285534151750e-02
-1.895448896275209183e-02
-2.123920756723807202e-02
-2.187753540214099068e-02
-2.401976049600906826e-02
-1.768070458618709040e-02
-2.150638479293265348e-02
-2.103116547092676036e-02
-1.855504815612263325e-02
-2.385404148051251116e-02
-2.230225523108664287e-02
-2.738376144954224323e-02
-2.324671135864597726e-02
-2.644804523871258084e-02
-2.910251001268360227e-02
-2.671351333078897383e-02
-2.773681417859785725e-02
-2.799118299134994992e-02
-2.601607092995694703e-02
-2.354288851801999982e-02
-2.301668441296034207e-02
-2.135552322109268708e-02
-1.326941224032962552e-02
-1.852514011419736928e-02
-2.168475235423816816e-02
-2.346173772474535735e-02
-1.377174679896731035e-02
-1.737371541324639335e-02
-1.777308916423203655e-02
-2.136699152306942295e-02
-2.148593482675698052e-02
-2.325711691698428840e-02
-2.546140226351423230e-02
-3.183796063915500518e-02
-2.998970256826882785e-02
-3.253549869808702866e-02
-3.045303846372293677e-02
-3.077079664556403582e-02
-2.783093693762572762e-02
-3.278589187030966912e-02
-3.186568849678650395e-02
-3.160794320164472815e-02
-2.974141738545765801e-02
-2.824494599458793331e-02
-3.611004196101669228e-02
-3.971686956873948793e-02
-2.971657777221003993e-02
-3.109625277837935187e-02
-3.129248226009917477e-02
-2.948762793064674259e-02
-2.578540084619607153e-02
-2.386855760326422882e-02
-2.425205583292977529e-02
-2.663690320904743558e-02
-2.525685671695943046e-02
-2.485299260849604952e-02
-1.501292833962997175e-02
-1.678596183209357662e-02
-1.547909812640246852e-02
-1.649401438922160068e-02
-1.816548688243702081e-02
-1.826182086948313632e-02
-1.671926650173105600e-02
-2.074933592493410917e-02
-1.697379176783597732e-02
-1.814634501339718042e-02
-2.349446114537956376e-02
-2.128402281824159914e-02
-2.230341795755097500e-02
-1.540331117464799338e-02
-2.326207257641244031e-02
-1.852663671301724158e-02
-2.066679380837488367e-02
-1.749034010885130996e-02
-2.106032356803633210e-02
-1.984446486252799957e-02
-2.447116933202742040e-02
-2.676871168307259907e-02
-3.449749574496974169e-02
-3.279478643356215084e-02
-3.728217165801694932e-02
-3.346892326558004171e-02
-4.000359581546275578e-02
-4.283137160080546790e-02
-4.242767202082009526e-02
-3.829437845026423259e-02
-3.835473888894702643e-02
-3.726327950470376127e-02
-3.492991817281521083e-02
-3.765710870639316088e-02
-3.306940199446728457e-02
-3.102326452155024228e-02
-3.038717611174779343e-02
-2.975677085784522724e-02
-3.150248038165104347e-02
-3.418615223981213980e-02
-2.870553756559579561e-02
-2.931307487460910188e-02
-3.172132406015815143e-02
-3.152621513908993034e-02
-2.795272201345777585e-02
-2.381483321565813771e-02
-2.498381265235349868e-02
-2.613359059819098107e-02
-2.843397472055425590e-02
-3.166203714518617263e-02
-3.025067075495380120e-02
-2.899356693957549913e-02
-3.018514429823904166e-02
-2.951724272898476054e-02
-3.267301182712167851e-02
-3.485515730685107005e-02
-3.059359142390905006e-02
-3.591460082179542823e-02
-3.149408102057105197e-02
-3.372379417697191073e-02
-3.252927782397696532e-02
-3.035797430638775829e-02
-2.931175694262944109e-02
-2.479972254671913845e-02
-2.805402072025076077e-02
-2.826581799839911202e-02
-2.968734768290726134e-02
-2.633531361875640631e-02
-2.152241992425985018e-02
-2.005982653365084856e-02
-2.106588056001612586e-02
-1.986767521022902994e-02
-2.311844776461335904e-02
-2.556509095902537165e-02
-2.733025482274464846e-02
-2.509177287462338590e-02
-2.892113442792232370e-02
-3.416906882616521646e-02
-3.669378053900640424e-02
-3.471806526572263074e-02
-3.531783573163427281e-02
-2.862087535257096249e-02
-2.744396016848071884e-02
-2.676181994939141884e-02
-2.753206013646192218e-02
-3.052381817238269957e-02
-2.697044391120473339e-02
-3.160949177659189147e-02
-3.316248365006296828e-02
-3.212331983360650067e-02
-2.636295246382214241e-02
-2.415510564192019372e-02
-2.756256957763142390e-02
-2.830316163247859063e-02
-2.675530831818739852e-02
-2.978594920684518588e-02
-2.947072747074708232e-02
-3.005265007289292800e-02
-3.466489622578317054e-02
-3.286166057718986622e-02
-3.411916089228084203e-02
-3.618984127150126628e-02
-3.150974869032208137e-02
-3.707767082677937420e-02
-2.782488622814482948e-02
-2.650045573336790028e-02
-2.718761035610839372e-02
-2.768730623915971467e-02
-2.605058640865220987e-02
-2.828651180809316212e-02
-2.814682895781950300e-02
-2.658783962014271696e-02
-2.896741915550338220e-02
-2.964993027947793180e-02
-2.705674592198437090e-02
-3.033148455820444678e-02
-2.811251209046405908e-02
-2.874263735758331162e-02
-2.048879906054956734e-02
-2.200589644828465641e-02
-2.407357647675600898e-02
-1.869692219140517420e-02
-2.798338065364014415e-02
-2.438551946603229048e-02
-2.598610470812312556e-02
-3.166600800405705574e-02
-2.445208775197238449e-02
-2.699459190368513894e-02
-2.519353452292005802e-02
-2.381660307127020371e-02
-2.401431148148913675e-02
-3.015200110994609162e-02
-2.841080220754715890e-02
-2.675867319521346710e-02
-2.889954182905218882e-02
-2.650628669012511374e-02
-2.509776320554757412e-02
-2.407307591548446535e-02
-2.133076570452752119e-02
-1.923570933242391146e-02
-1.066665046345527390e-02
-1.332287828834810561e-02
-1.056858387281178757e-02
-1.282568991205945697e-02
-1.276821476434364389e-02
-6.819871675138977629e-03
-9.527349222184566813e-03
-1.122524553551218496e-02
-5.209650808145616097e-03
-7.899291480170433921e-03
-7.081606738921664146e-03
-7.273551346660633854e-03
-6.323646984201403143e-03
-5.674198099811955665e-03
-7.086545604255922726e-03
-2.571304872155066867e-03
2.486576848691690600e-03
5.519981943011398329e-03
1.173028014682531150e-02
6.117958261392719699e-03
1.261976403970987981e-02
8.942166997582434718e-03
1.116008393144496402e-02
1.698636028694944233e-02
1.849423365182012446e-02
1.948090740737407067e-02
2.525416953356163230e-02
2.334377761608619206e-02
2.604900367424611840e-02
2.360896408734902696e-02
2.772388084304999722e-02
2.650528059797208069e-02
3.330790531909544328e-02
3.814264317180882102e-02
5.163925693404025630e-02
5.136650013951526983e-02
4.727145675285115978e-02
4.134041577291547309e-02
4.443019926934510533e-02
4.174549689184581247e-02
3.733981391793561588e-02
2.967562863037809251e-02
2.806896535238390111e-02
2.319459086882069698e-02
1.841164637884484812e-02
1.840956859723230643e-02
7.583846290909357357e-03
1.074113223616246504e-02
1.220328541795001609e-02
7.057890892712359587e-03
6.599169437351393164e-03
8.020039646329690797e-03
6.669728202649882753e-03
1.126020360478918736e-02
4.734447584810785870e-03
9.671732271935851166e-03
1.659184693112991660e-03
3.109490343578880100e-03
-2.561723758240042059e-03
-1.883564657649494656e-03
-4.409030138669778331e-03
-4.211455777083039642e-03
-1.397923022093860990e-02
-1.019184306021692077e-02
-1.511515280340613998e-02
-1.570713695106085162e-02
-1.984076928894973335e-02
-2.094690406647869985e-02
-2.829597299764702312e-02
-2.651936943812915892e-02
-2.438127907401954619e-02
-2.582349663319360999e-02
-3.186876114512593450e-02
-3.318260238653347738e-02
-3.314720845120094905e-02
-3.310500968420360124e-02
-3.343294151188425101e-02
-2.984631744228827266e-02
-2.775062962363872288e-02
-3.261215921931459594e-02
-3.348876670448974746e-02
-3.173352010958674363e-02
-2.403255352781330512e-02
-3.254004791883136072e-02
-3.280009832719799068e-02
-3.687106324050060113e-02
-3.564839795005825263e-02
-3.501167611650829459e-02
-3.742326501333559374e-02
-3.421276256395672233e-02
-3.847087164225998501e-02
-4.071388700739392297e-02
-4.071567752259741546e-02
-4.620843765627602462e-02
-4.865110364308306012e-02
-4.660644360735616276e-02
-4.405220179881885745e-02
-4.931663987803702742e-02
-5.220862080780008796e-02
-4.563801563233671477e-02
-4.585909907361163107e-02
-5.385759322054517462e-02
-4.661920220350546096e-02
-4.201517741757787583e-02
-4.441727394284056274e-02
-3.642244200791844300e-02
-3.703479558632205570e-02
-3.919436339993270790e-02
-3.946038793791539767e-02
-3.662816735172158555e-02
-3.496777007884027677e-02
-3.682247588654619097e-02
-3.212547004412286134e-02
-3.832298362323016683e-02
-4.205010502856287857e-02
-4.607248967014854202e-02
-4.675015435159524113e-02
-4.619693146011205620e-02
-5.249033776466671686e-02
-4.973738506833547124e-02
-5.091067553912931309e-02
-4.713768350547309360e-02
-4.734565823736214263e-02
-4.067592381742124452e-02
-3.696024971960520933e-02
-2.800809773073820175e-02
-2.879085717176699255e-02
-2.824281349210178149e-02
-2.520834469137667178e-02
-2.541678402770980449e-02
-3.002074740255555874e-02
-3.506604738944490984e-02
-4.160156269094061887e-02
-4.575807487731686773e-02
-6.615597498641734298e-02
-7.523913906903223481e-02
-8.103372001959324722e-02
-9.181900133134485165e-02
-1.056802715340734444e-01
-1.160943566923631765e-01
-1.246227916284869397e-01
-1.322141295403957972e-01
-1.402067124420125488e-01
-1.463853431897185198e-01
-1.398251520474330656e-01
-1.396685790572583796e-01
-1.338652317221294963e-01
-1.421969121075116749e-01
-1.436691130791522553e-01
-1.531720959592558495e-01
-1.551733431614715775e-01
-1.523130578908425958e-01
-1.410529577131215406e-01
-1.297816388143789301e-01
-1.172055808885458239e-01
-9.620813229021718538e-02
-6.922752639971896382e-02
-4.123006089092318138e-02
4.567392643781809092e-03
5.697905608711517633e-02
1.157614980821767281e-01
1.890149511603641530e-01
2.500779078175585646e-01
3.070818298558093407e-01
3.663691751911722916e-01
4.151768858266313700e-01
4.622559416835014257e-01
5.242523904608786811e-01
5.860814715595134006e-01
6.598527825546646186e-01
7.044072691034741762e-01
7.362487083839128754e-01
7.699481740073321756e-01
8.006365728489821532e-01
8.324541946757740840e-01
8.354215671932176956e-01
8.182779013134123813e-01
8.255980213818130409e-01
8.265705507181047018e-01
8.080680812874947438e-01
7.488910144176132988e-01
6.720249049739024372e-01
6.160367630846785847e-01
5.429852343575819473e-01
4.366003464479639717e-01
3.262044244838676610e-01
2.385242758915805394e-01
1.794235623760382925e-01
1.112276751876268843e-01
5.919719091811381784e-02
1.551416349556866692e-02
-1.716045727714587965e-02
-3.224471993168714912e-02
-5.601817115398238789e-02
-8.056455031548703793e-02
-1.073662046646727264e-01
-1.264447643302176738e-01
-1.470418926089059886e-01
-1.634209745532457791e-01
-1.685390587327891265e-01
-1.561704476989959067e-01
-1.600764384556366826e-01
-1.493652694305143691e-01
-1.387866555192842632e-01
-1.288948370334819793e-01
-1.035024078891996768e-01
-8.367837245461329232e-02
-8.428990096675781363e-02
-7.243853404280214958e-02
-6.969284315989171530e-02
-6.887515482628164820e-02
-7.580676153315379917e-02
-8.519596546741636800e-02
-9.168806233753895585e-02
-1.022175293826764753e-01
-1.039625439938578477e-01
-1.090649696538293356e-01
-1.086860515688585771e-01
-1.135914400655432255e-01
-1.156480560836387617e-01
-1.159421750312774058e-01
-1.092962741336473975e-01
-1.069973630039650070e-01
-1.045296026427565694e-01
-9.198904177558808737e-02
-8.489873158147887011e-02
-8.644299249596565371e-02
-8.007351944961449419e-02
-8.242480016988451563e-02
-8.350085516949939946e-02
-8.069894587289666577e-02
-8.154060553748454510e-02
-8.119856633742261742e-02
-8.541031697682188728e-02
-9.238851588080870814e-02
-1.006248105176172913e-01
-1.007245868915385145e-01
-1.051953310589263113e-01
-1.081783931779498609e-01
-1.122682696542652847e-01
-1.123310459110339887e-01
-1.145774955174652110e-01
-1.082804895848404336e-01
-1.090747632048110205e-01
-9.621774992192300147e-02
-9.294118670406326110e-02
-9.008585021680842742e-02
-8.717262212121124065e-02
-8.538085599902078826e-02
-8.185924441589642608e-02
-8.244569153605962875e-02
-8.540252475599829918e-02
-8.772658678969980084e-02
-9.171442769080495605e-02
-8.775693733567935251e-02
-9.251782450685647197e-02
-8.880937082076079125e-02
-9.355961820983060839e-02
-9.587324769524097068e-02
-9.282494692771392497e-02
-9.193384071335913843e-02
-9.179169351781746311e-02
-9.251416393854994258e-02
-8.487046869097009116e-02
-7.683778774460026106e-02
-8.067949811582680875e-02
-7.410616434710759481e-02
-7.527707664555066680e-02
-7.143654004906302424e-02
-7.284332818356781258e-02
-6.934716739332591473e-02
-6.966464693061336089e-02
-6.443743500049153861e-02
-6.935035902326425195e-02
